1023
1023
1023
1023
1023
1023
1023
1023
1023
1023
1023
1023
1023
1023
1023
1023
1023
1023
776
1018
1023
1019
1023
1019
1023
1019
1023
1019
1023
619
597
553
556
652
602
539
454
395
517
589
685
654
642
615
1022
964
462
387
358
286
540
649
1023
935
854
1019
1023
998
736
921
161
228
326
326
414
426
396
409
575
588
447
898
446
770
1023
1019
452
1022
1023
1022
1023
1022
1023
1022
1023
1022
1023
1022
1023
624
496
876
893
694
932
994
651
1022
1023
1022
1023
1022
1023
1022
1023
1022
1023
1022
1023
1022
1023
1022
1023
1022
1022
1023
1022
1023
1022
1023
1022
1023
1022
1023
1022
1023
626
358
364
433
431
398
315
262
186
246
380
363
292
484
395
434
378
818
236
160
608
1023
1023
1023
1023
1023
1023
1023
1023
1023
1023
1023
1023
1023
1023
1023
1023
1023
1023
1023
1023
1023
1023
1023
1023
1023
1023
1023
1023
1023
1023
1023
1023
1023
1023
1023
1023
1023
1023
1023
1023
1023
1023
1023
1023
1023
1023
1023
1023
1023
1023
1023
1023
1023
1023
1023
1023
1023
1023
1023
1023
1023
1023
1023
1023
1023
1023
1023
1023
1023
1023
1023
1023
1023
937
1019
1023
1019
1013
1019
1023
1019
1023
1019
1023
1019
1023
1019
1023
1019
1023
1019
1023
1019
1023
1019
1023
1019
1023
1019
1023
1019
1023
1019
1023
1019
1023
1019
1023
1019
1023
1019
1023
1019
1023
1019
1023
1018
892
1023
1023
1023
1023
1023
1023
1023
1023
1023
1023
1023
1023
1023
1023
1023
1023
1023
1023
1023
1023
1023
1023
1023
1023
1023
1023
1023
1023
1023
1023
1023
1023
1023
1023
1023
1023
945
755
548
1023
1023
1023
1023
1023
1023
1023
1023
1023
1023
1023
1023
1023
1023
1023
1023
1023
1023
1023
1023
1023
1023
1023
1023
1023
1023
1023
1023
1023
1023
1023
1023
977
1023
822
1019
1023
1019
1023
1019
1023
1019
1023
1019
1023
1019
1023
1019
1023
1019
1023
1019
1023
1019
1023
1019
1023
1019
1023
1019
1023
1018
1023
1018
1023
1018
1023
1019
1023
1019
1023
1019
1023
1019
1023
1019
1023
1019
1023
1019
1023
1018
1023
1018
1023
1019
1023
1018
1023
1018
1023
1019
1023
1019
1023
1019
1023
1019
1023
1019
1023
1019
1023
1019
1023
1019
1023
1019
1023
1019
1023
1018
1023
1018
1023
1019
1023
1019
1023
1019
1023
1019
1023
1019
1023
1018
1023
1019
1019
1023
1019
1023
1019
1023
1019
1023
1018
1023
1019
1023
1019
1019
1023
1018
1023
1019
1023
1019
1023
1019
1023
1019
1023
1019
1023
1019
1023
1019
1023
1019
1023
1019
1023
1019
1023
1019
1023
1019
1023
1018
1023
1019
1023
1018
1023
898
1022
1023
1023
1023
1023
1023
1023
1023
1023
1023
1023
1023
1023
1023
1023
1023
1023
1023
1023
1023
1023
1023
1023
1023
1023
1023
1023
1023
1023
1023
1023
1023
1023
1023
1023
1023
1023
1023
1023
1023
1023
1023
1023
1023
1023
1023
1023
1023
1023
1023
1023
1023
1023
1023
1023
1023
1023
1023
1023
1023
1023
1023
1023
1023
1023
1023
1023
1023
948
1022
1023
1022
1023
1022
1023
1022
1023
1022
1023
1022
1023
1022
1023
1022
1023
1022
1009
807
1022
1023
1022
1023
1022
1023
1022
1023
1022
1023
1022
1023
1022
1023
1022
973
1023
671
948
1023
1022
1023
1022
1023
611
1019
774
660
858
887
1022
1023
1022
925
668
551
1022
889
821
1012
1017
999
1022
1023
1022
1023
1022
1023
1022
1023
1022
1023
1010
1023
1022
1023
1022
1023
1022
1023
1022
1023
1022
1023
1022
1023
1022
1023
1022
1023
1022
1023
1022
1023
1018
1023
1022
1023
1022
1023
1022
1023
1022
1023
1022
1023
1022
1023
1022
1023
1022
1023
1022
1023
715
594
771
1019
1023
1019
1023
934
1023
1023
1023
1023
1004
1023
1023
1023
1023
1023
1023
1023
1023
1023
1023
1023
1023
1023
1023
1023
1023
1023
1023
1023
1023
1023
1023
1023
1023
1023
1023
1023
1023
1023
1023
1023
1023
1023
1023
1023
1023
1023
1023
1023
1023
1023
1023
1023
1023
1023
1023
1023
1023
1023
1023
1023
1023
1023
1023
1023
1023
1023
1023
1023
1023
1023
1023
1023
1023
1023
1023
1023
1023
1023
1023
1023
1023
1023
1023
1023
1023
1023
1023
1023
1023
1023
1023
1023
1023
1023
1023
1023
1023
1023
1023
1023
1023
1023
1023
1023
1023
1023
1023
1023
1023
1023
1023
1023
1023
1023
1023
1023
1023
1023
1023
1023
1023
1023
1023
1023
1023
1023
1023
1023
1023
1023
1023
1023
1023
1023
1023
1023
1023
1023
1023
1023
1023
1023
1023
1023
1023
1023
1023
1023
1023
1023
1023
1023
1023
1023
1023
1023
1023
1023
1023
1023
1023
1023
1023
1023
1023
1023
1023
1023
1023
1023
1023
1023
1023
1023
1023
1023
1023
1023
1023
1023
1023
1023
1023
1023
1023
1023
1023
1023
1023
1023
1023
1023
1023
1023
1023
1023
1023
1023
1023
1023
1023
1023
1023
1023
1023
1023
1023
1023
1023
1023
1023
1023
1023
1023
1023
1023
1023
1023
1023
1023
1001
1023
1023
1023
1023
1023
1023
1023
1023
1023
1023
1023
1023
1023
1023
1023
1023
1023
1023
1023
1023
1023
1023
1023
1023
1023
1023
1023
1023
1023
1023
1023
1023
1023
1023
1023
1023
1023
1023
1023
1023
1023
1023
1023
1023
1023
1023
1023
1023
1023
1023
1023
1023
1023
1023
1023
1023
1023
1023
1023
1023
1023
1023
1023
1023
1023
1023
1023
1023
1023
1023
1023
1023
1023
1023
1023
1023
1023
1023
1023
1023
1023
1023
1023
1023
1023
1023
1023
1023
1017
1023
1023
1023
1023
1023
1023
1023
1023
1023
1023
1023
1023
1023
1023
1023
1023
1023
1023
1023
1023
1023
1023
997
1023
1022
1023
1010
1023
1022
1023
1022
1023
1022
1023
1022
1023
1022
1023
1022
1023
1022
1023
1022
1023
1022
1023
1022
1023
1022
1023
1022
1023
1022
1023
1022
1023
1022
1023
1022
1023
1022
1023
1022
1023
1022
1023
1022
1023
1022
1023
1022
1023
1022
1023
1022
1023
1022
1023
1022
1023
1022
1023
1022
1023
1022
1023
1022
1023
1022
1023
1022
1023
1022
1023
1022
1023
1022
1023
1023
1022
1023
1022
1023
1022
1023
1022
1023
1022
1023
1022
1023
1022
1023
1022
1023
1022
1023
1022
1023
1022
1023
1022
1023
1022
1023
1022
1023
1022
1023
1022
1023
1022
729
1023
1019
1023
626
930
1023
546
444
697
1020
379
628
719
1013
1019
1023
1019
1023
1019
1023
1019
1023
1019
1023
1019
1023
958
1022
999
1010
1023
1022
1023
1022
1023
1022
435
979
1023
1022
1023
1022
1023
1022
1023
1022
1023
1022
1017
1022
1023
1022
1023
1022
1023
1022
1023
1022
1023
1022
1022
1023
1022
1023
1022
1023
1022
1023
1022
1023
1022
1023
1022
1023
1022
1023
1022
1023
1022
1023
1022
1023
1022
1023
1022
1023
1022
1022
1023
1022
1023
1022
1023
1022
1023
1022
1023
1022
1023
1022
1023
1022
1023
1022
1023
1022
1023
1022
1023
1022
1023
1022
1023
1022
1023
1023
1022
1023
1022
1023
1022
1023
1022
1023
1022
1023
1022
1023
1022
1023
1022
1023
1022
1023
1022
1023
1022
1023
1022
1023
1022
1023
1022
1023
1022
1023
1022
1023
1022
1023
1022
1023
1022
1023
1022
1023
1022
1023
1022
1023
1022
1023
1022
1023
1022
1023
1022
1023
1022
1023
1022
1023
1022
1023
1022
1023
1022
1023
1022
1023
1022
1023
1022
1023
1022
1023
1022
1023
1022
1023
1022
1023
1022
1023
1022
1023
1022
1023
1022
1023
1022
1023
1022
1023
1022
1023
1022
1023
1022
1023
1022
1023
1022
1023
1022
1023
1022
1023
1022
681
756
1023
1023
1023
1023
1023
1023
1023
1023
480
802
1019
493
1023
1023
1023
1023
484
306
570
1022
328
1023
1019
1004
946
692
497
400
631
1022
617
1023
818
478
1023
1023
510
577
928
1023
877
987
1023
1019
1023
470
913
1023
986
1023
913
1023
969
1013
998
1010
1020
991
1010
1023
1023
1019
884
1023
609
1023
1022
1023
1022
357
1021
1019
1023
1019
1023
1019
1023
1019
1023
1018
1023
1019
1023
1019
1023
1018
1023
1019
1023
1019
1023
1019
1023
1019
1023
1019
1023
1019
1023
1019
1023
1019
1023
1019
1023
1023
1019
1023
1019
1023
1019
1023
1019
1023
1019
1023
1019
1023
1019
1019
1023
1019
1023
1019
1023
1019
1023
1019
1023
1019
1023
1018
1023
1019
1023
1019
1023
1018
1023
1019
1023
1019
1023
1019
1023
1019
1023
1019
1023
1019
1023
1019
1023
1019
1023
1019
1023
1018
1023
1019
1023
1019
1023
1023
1019
1023
1019
1023
1019
1023
1019
1023
1019
988
1023
1023
1023
815
1023
1022
1023
1022
1023
1022
1023
1022
1023
1022
1023
1022
1023
1022
1023
1022
1023
1022
1023
1022
1023
1022
1023
1022
1023
1022
1023
1022
1023
1022
1023
1022
1023
1022
1023
1022
1023
1022
1023
1022
1023
1022
1023
1022
1023
1022
1023
1022
1023
1022
1023
1022
1023
1022
1023
1022
1023
1022
1023
1022
1023
1022
1023
1022
1023
1022
1023
1022
1023
1022
1023
1022
1023
1022
1023
1022
1023
1022
1023
1022
1023
1022
1023
1022
1023
1022
1023
1022
1023
1022
1023
1022
1023
1022
1022
1023
1022
1023
1022
1023
1022
1023
1022
1023
1022
1023
1022
1023
1022
1023
1022
1023
1022
1023
1022
1023
1022
1023
1022
1023
1022
1023
1022
1023
1022
1023
1022
1023
1022
1023
1022
1023
1022
1023
1022
1023
1022
1023
1022
1023
1022
1023
1022
1023
1022
1023
1022
1023
1022
1023
1022
1023
1022
1023
1022
1023
1022
1023
1022
1023
1022
1023
1022
1023
1022
1023
1022
1023
1022
1023
1022
1023
1022
1023
1022
1023
1022
1023
1022
1023
1022
1023
1022
1023
1022
1023
1022
1023
1023
1022
1023
1022
1023
1022
1023
1022
1023
1022
1023
1022
1023
1022
1023
1022
1023
1022
1023
1022
1023
1022
1023
1022
1023
1022
1023
1022
1023
1022
1023
1023
1022
1023
1022
1023
1022
1023
1022
1023
1022
1023
1022
1023
1022
1023
1022
1023
1022
1023
1022
1023
1022
1023
1022
1023
1022
1023
1022
1023
1022
1023
1022
1023
1022
1023
1022
1023
1022
1023
1022
1023
1022
1023
1022
1023
1022
1023
1022
1023
1022
1023
1022
1023
1022
1023
1022
1023
1022
1023
1022
1023
1022
1023
1022
1023
1022
1023
1022
1023
1022
1023
1022
1023
1022
1023
1022
1023
1022
1023
1023
1022
1023
1022
1023
1022
1023
1022
1023
1022
1023
1022
1023
1022
1023
1022
1023
1022
1023
1022
1023
1022
1023
1022
1023
1022
1023
1022
1023
1022
1023
1022
1023
1022
1023
1022
1023
1022
1023
1022
1023
1022
1023
1022
1023
1022
1023
1022
1023
1022
1023
1022
1023
1022
1023
1022
1023
1022
1023
1022
1023
1022
1022
1023
1022
1023
1022
1023
1022
1023
1022
1023
1022
1023
1022
1023
1022
1022
1023
1022
1023
1022
1023
1022
1023
1022
1023
1022
1023
1022
1023
1022
1023
1022
1023
1022
1023
1022
1023
1022
1023
1022
1023
1022
1023
1022
1023
1022
1023
1022
1023
1022
1023
1022
1023
1022
1023
1022
1023
1022
1023
1022
1023
1022
1023
1022
1023
1022
1023
1022
1023
1022
1023
1022
1023
1022
729
836
1022
1023
1022
1023
1022
1023
1022
1023
1022
1023
1022
1023
1022
1023
1022
1023
1022
1023
1022
1023
1022
1023
1022
1023
1022
1023
1022
1023
1022
1023
1022
1023
1022
1023
1022
1023
1022
1023
1022
1023
1022
1023
1022
1023
1022
1023
1022
1023
1022
1023
1022
1023
1022
1023
1023
1022
1023
1022
1023
1022
1023
1022
1023
1022
1023
1022
1023
1022
1023
1022
1023
1022
1023
1022
1023
1022
1023
1022
1023
1022
1023
1022
1023
1022
1023
1022
1022
1023
1022
1023
1022
1023
1022
1023
1022
1023
1022
1023
1022
1023
1022
1023
1022
1023
1022
1023
1022
1023
1022
1023
1022
1023
1022
1023
1022
1023
1022
1023
1022
1023
1022
1023
1022
1023
1022
1023
1022
1023
1022
1023
1022
1023
746
1019
1023
1023
681
984
1023
1010
1023
1019
1023
1019
1023
934
1023
1023
1023
1023
1023
1023
1023
1023
1023
1023
1023
1023
1023
1023
1023
1023
1023
1023
1023
1023
1023
1023
1023
1023
1023
1023
1023
1023
1023
1023
1023
1023
1023
1023
1023
1023
1023
961
1023
1023
1022
1023
1022
1023
1022
1023
1022
1023
1022
1023
1022
1023
1022
1023
1022
1023
1022
1023
1022
929
1023
1018
1023
1019
1023
1018
1023
1019
1023
1019
1023
1019
1023
1019
1023
1019
1023
688
1022
1023
1023
1023
1023
1023
1023
1023
1023
1023
1023
1023
1023
956
1022
1023
1022
1023
1022
1023
1022
1023
1022
1023
1022
1023
1022
1023
1022
1023
1022
1023
1022
1023
1022
1023
1022
1023
1022
1023
1022
1023
1022
1023
1022
1023
1022
1023
1022
1023
1022
1023
1022
1023
1022
1023
1022
1023
1022
1023
1022
1023
1022
1023
1022
1023
1022
1023
1022
1023
1022
1023
1022
1023
1022
1023
1022
1023
1022
1023
1022
1023
1022
1023
1022
1023
1022
1023
1022
1023
1022
1023
1022
1023
1023
1022
1023
1022
1023
1022
1023
1022
1023
1022
1023
1022
1022
1023
1022
1023
1022
1023
1022
1023
1022
1023
1022
1023
1022
1023
1022
1023
1022
1023
1022
1023
1022
1023
1022
1023
1022
1022
1023
1022
1023
1022
1023
1022
1023
1022
1023
1022
1023
1022
1023
1022
1023
1022
1023
1022
1023
1022
1023
1022
1023
1022
1023
1022
1023
1022
1023
1022
1023
1022
1023
1022
1023
1022
1023
1022
1023
1022
1023
1022
1022
1023
1022
1023
1022
1023
1022
1023
1022
1023
1022
1023
1022
1023
1022
1023
1022
1023
1022
1023
1022
1023
1022
1023
1022
1023
1022
1023
1022
1023
1023
1022
1023
1022
1023
1022
1023
1022
1023
1022
1023
1022
1023
1022
1023
1022
1023
1022
1023
1022
1023
1022
1023
1022
1023
1022
1023
1022
1023
1022
1023
1022
1023
1022
1023
1022
1023
1022
1023
1022
1023
1022
1023
1022
1023
1022
1022
1023
1022
1023
1022
1023
1022
1023
1022
1023
1022
1023
1022
1023
1022
1023
1022
1023
1022
1023
1022
1023
1022
1023
1022
1023
1022
1023
1022
1023
1023
1022
1023
1022
1023
1022
1023
1022
1023
1022
1023
1022
1023
1022
1023
1022
1023
1022
1023
1022
1023
1022
1023
1022
1023
1022
1023
1022
1023
1022
1023
1022
1023
1022
1023
1022
1023
1022
1023
1022
1023
1022
1023
1022
1023
1022
1022
1023
1022
1023
1022
1023
1022
1023
1022
1023
1022
1023
1022
1023
1022
1022
1023
1022
1023
1022
1023
1022
1023
1022
1023
1022
1023
1022
1023
1022
1023
1022
1023
1022
1023
1022
1023
1022
1023
1022
1023
1022
1023
1022
1023
1022
1023
1022
1023
1022
1023
1022
1023
1022
1023
1022
1023
1022
1023
1022
1023
1022
1023
1022
1023
1022
1023
1022
1023
1022
1023
1022
1023
1022
1023
1022
1023
1022
1023
1022
1023
1022
1023
1022
1023
1022
1023
1022
1023
1022
1023
1022
1023
1022
1023
1022
1023
1022
1023
1022
1023
1022
1023
1022
1023
1022
1023
1022
1023
1022
1023
1022
1023
1022
1023
1022
1023
1022
1023
1022
1023
1022
1023
1022
1023
1022
1023
1022
1023
1022
1023
1022
1023
1022
1023
1022
1023
1022
1023
1022
1023
1022
1023
1022
1023
1022
1023
1022
1023
1022
1023
1022
1023
1022
1023
1022
1023
1022
1023
1022
1023
1022
1023
1022
1023
1022
1023
1022
1023
1022
1023
1023
1022
1023
1022
1023
1022
1023
1022
1023
1022
1023
1022
1023
1022
1023
1022
1023
1022
1023
1022
1023
1022
1023
1022
1023
1022
1023
1022
1023
1022
1022
1023
1022
1023
1022
1023
1022
1023
1022
1023
1022
1023
1022
1023
1023
1022
1023
1022
1023
1022
1023
1022
1023
1022
1023
1022
1023
1022
1023
1022
1023
1022
1023
1022
1023
1022
1023
1022
1023
1022
1023
1022
1023
1022
1023
1022
1023
1022
1023
1022
1023
1022
1023
1022
1023
1022
1023
1022
1023
1022
1023
1022
1023
1022
1023
1022
1023
1022
1023
1022
1023
1022
1023
1022
1023
1022
1023
1022
1023
1022
1023
1022
1023
1022
1023
1022
1023
1022
1023
1022
1023
1022
1023
1022
1023
1022
1023
1022
1023
1022
1023
1022
1023
1022
1023
1022
1023
1022
1023
1022
1023
1022
1023
1022
1023
1022
1023
1022
1023
1023
1022
1023
1022
1023
1022
1023
1022
1023
1022
1023
1022
1023
1022
1022
1023
1022
1023
1022
1023
1022
1023
1022
1023
1022
1023
1022
1023
1022
1023
1022
1023
1022
1023
1022
1023
1022
1023
1022
1023
1022
1022
1023
1022
1023
1022
1023
1022
1023
1022
1023
1022
1023
1022
1023
1022
1023
1022
1023
1022
1023
1022
1023
1018
1023
1022
1023
1022
1022
1023
1022
1023
1022
873
985
1005
1022
961
1023
1008
375
482
946
1022
1020
825
678
853
0
1023
439
406
1023
1019
1023
1023
1023
924
962
1002
1023
658
596
1023
1022
777
1023
607
1022
1023
1023
263
958
810
1022
1023
1022
527
1023
715
764
1023
538
818
959
698
654
841
192
900
906
304
946
1018
800
1013
1023
1023
1023
972
430
336
1005
505
1023
453
768
1023
857
995
1023
667
446
839
261
1017
882
515
1022
1023
969
434
1023
1014
451
1013
1010
1020
507
1020
1023
1023
1023
1023
713
1023
960
1004
1018
628
928
934
994
994
1018
1023
1018
1023
986
1020
897
1021
1023
1022
1007
1022
1023
1022
1017
631
838
1022
742
598
986
607
482
1023
665
972
1020
1015
1019
941
1023
1023
1023
1023
1023
961
1019
1023
1018
749
684
1022
937
844
1022
1023
1022
1023
1022
1023
1014
1017
1022
1021
1022
1023
1022
1023
1022
1022
1023
1022
1023
1022
1000
1022
1001
1022
725
1023
1019
420
828
455
1018
639
1023
1022
1023
990
1018
1023
1019
1023
1019
1023
1018
1023
1019
1023
1019
1023
1019
1023
1019
1023
1019
1023
1019
1023
1019
1023
1019
1023
1019
1023
1019
1023
1018
1023
1019
1023
1019
1023
1018
1023
1019
1023
1018
1023
1019
1023
1019
1023
1019
1023
1019
1023
1018
1023
1019
1023
1019
1023
1019
1023
1019
1023
1019
1023
1019
1023
1019
1023
1019
1023
1019
1023
1018
1023
1019
1023
1019
1023
1019
1023
1019
1023
1019
1023
1019
1023
1019
1023
1019
1023
1019
1023
1019
1023
1019
1023
1019
1019
1023
1019
1023
1019
1023
1019
1023
1019
1023
1019
1023
1019
1023
1019
1023
1019
1023
1019
1023
1019
1023
1019
1023
1019
1023
1019
1023
1019
1023
1019
1023
1019
1023
1018
1023
1019
1023
1019
1023
1019
1023
1019
1023
1019
1023
1018
1023
1019
1023
1018
1023
1018
1023
1019
1019
1023
1019
1023
1019
1023
1018
1023
1019
1023
1018
1023
1018
1019
1023
1019
1023
1019
1023
1019
1023
1018
1023
1019
1023
1019
1019
1023
1018
1023
1019
1023
1019
1023
1019
1023
1019
1023
1019
1023
1018
1023
1018
1023
1019
1023
1019
1023
1019
1023
1019
1023
1019
1023
1019
1023
1019
1023
1019
1023
1018
1023
1019
1023
1019
1023
1019
1023
1019
1023
1019
1023
1019
1023
1019
1023
1019
1023
1019
1023
1019
1023
1019
1023
1023
1019
1023
1019
1023
1019
1023
1019
1023
1018
1023
1019
1023
1023
1019
1023
1018
1023
1019
1023
1018
1023
1019
1023
1019
1023
1019
1023
1019
1023
1019
1023
1019
1023
1019
1023
1019
1023
1019
1023
1019
1019
1023
1019
1023
1019
1023
1019
1023
1019
1023
1019
1023
1019
1023
1019
1023
1019
1023
1019
1023
1019
1023
1018
1023
1019
1023
1019
1023
1023
1019
1023
1019
1023
1019
1023
1019
1023
1019
1023
1019
1023
1019
1019
1023
1019
1023
1019
1023
1018
1023
1019
1023
1018
1023
1019
1023
1019
1023
1019
1023
1019
1023
1019
1023
1018
1023
1019
1023
1018
1023
1019
1023
1019
1023
1019
1023
1019
1023
1018
1023
1019
1023
1018
1023
1019
1023
1019
1023
1019
1023
1019
1023
1019
1023
1018
1023
1019
1023
1019
1023
1019
1023
1019
1023
1019
1023
1019
1023
1018
1023
1019
1023
1019
1023
1019
1023
1019
1023
1019
1023
1018
1023
1019
1023
1019
1023
1019
1023
1019
1023
1023
1018
1023
1019
1023
1019
1023
1019
1023
1019
1023
1018
1023
1019
1023
1019
1023
1019
1023
1019
1023
1019
1023
1019
1023
1019
1023
1019
1023
1019
1023
1019
1023
1019
1023
1019
1023
1018
1023
1019
1023
1019
1023
1023
1018
1023
1019
1023
1018
1023
1019
1023
1019
1023
1019
1023
1019
1023
1018
1023
1019
1023
1019
1023
1019
1023
1019
1023
1018
1023
1018
1023
1019
1019
1023
1019
1023
1019
1023
1019
1023
1019
1023
1019
1023
1019
1023
1019
1023
1019
1023
1019
1023
1019
1023
1019
1023
1019
1023
1019
1023
1019
1023
1023
1018
1023
1019
1023
1019
1023
1018
1023
1019
1023
1019
1023
1019
1023
1019
1023
1019
1023
1019
1023
1019
1023
1019
1023
1019
1023
1019
1023
1023
1019
1023
1019
1023
1018
1023
1019
1023
1019
1023
1019
1023
1023
1019
1023
1019
1023
1019
1023
1019
1023
1019
1023
1019
1023
1019
1023
1019
1023
1018
1023
1019
1023
1019
1023
1019
1023
1019
1023
1018
1023
1019
1023
1019
1023
1019
1023
1019
1023
1019
1023
1019
1023
1019
1023
1019
1023
1019
1023
1018
1023
1019
1023
1019
1023
1019
1023
1018
1019
1023
1019
1023
1019
1023
1019
1023
1019
1023
1019
1023
1018
1023
1023
1019
1023
1019
1023
1019
1023
1019
1023
1019
1023
1019
1023
1023
1019
1023
1019
1023
1019
1023
1019
1023
1019
1023
1019
1023
1023
1018
1023
1018
1023
1019
1023
1019
1023
1019
1023
1019
1018
1023
1019
1023
1019
1023
1019
1023
1019
1023
1019
957
1021
1023
1023
1023
1023
479
941
1023
1019
1023
1019
1023
906
618
1023
1019
1023
1012
1023
1023
1023
688
1022
415
1023
874
916
1023
914
579
918
803
1023
1018
1023
1023
1023
1023
1023
1023
1023
1023
1023
1023
1023
1023
1023
1023
1023
1023
1023
1023
1023
1023
1023
1023
1023
1023
1023
1023
1023
1023
1023
1023
1023
1023
1023
1023
1023
1023
1023
1023
1023
1023
1023
1023
1023
1023
1023
1023
1023
1023
1023
1023
1023
1023
1023
1023
1023
1023
1023
1023
1023
1023
1023
1023
1023
1023
1023
1023
1023
1023
1023
1023
1023
1023
1023
1023
1023
1023
1023
1023
1023
1023
1023
1023
1023
1023
1023
1023
1023
1023
1023
1023
1023
1023
1023
1023
1023
1023
1023
1023
1023
1023
1023
1023
1023
1023
1023
1023
1023
1023
1023
1023
1023
1023
1023
1023
1023
1023
1023
1023
1023
1023
1023
1023
1023
1023
1023
1023
1023
1023
1023
1023
1023
1023
1023
1023
1023
1023
1023
1023
1023
1023
1023
1023
1023
1023
1023
1023
1023
1023
1023
1023
1023
1023
1023
1023
1023
1023
1023
1023
1023
1023
1003
1023
1023
1023
1023
1023
1023
1023
1023
1023
1023
1023
1023
1023
1023
1023
1023
1023
1023
1023
1023
1023
1023
1023
1023
1023
1023
1023
1023
1023
1023
1023
1023
1023
1023
1023
1023
1023
1023
1023
1023
1023
1023
1023
1023
1023
1023
1023
1023
1023
1023
1023
1023
1023
1023
1023
1023
1023
1023
1023
1023
1023
1023
1023
1023
1023
1023
1023
1023
1023
1023
1023
1023
1023
1023
1023
1023
1023
1023
1023
1023
1023
1023
1023
1023
1023
1023
1023
1023
1023
1023
1023
1023
1023
1023
1023
1023
1023
1023
1023
1023
1023
1023
1023
1023
1023
1023
1023
1023
1023
1023
1023
1023
1023
1023
1023
1023
1023
1023
1023
1023
1023
1023
1023
1023
1023
1023
1023
1023
1023
1023
1023
1023
1023
1023
1023
1023
1023
1023
1023
1023
1023
1023
1023
1023
1023
1023
1023
1023
1023
1023
1023
1023
1023
1023
1023
1023
1023
1023
1023
1023
1023
1023
1023
1023
1023
1023
1023
1023
1023
1023
1023
1023
1023
1023
1023
1023
1023
1023
1023
1023
1023
1023
1023
1023
1023
1023
1023
1023
1023
1023
1023
1023
1023
1023
1023
1023
1023
1023
1023
1023
1023
1023
1023
1023
1023
1023
1023
1023
1023
1023
1023
1023
1023
1023
1023
1023
1023
1023
1023
1023
1023
1023
1023
1023
1023
1023
1023
1023
1023
1023
1023
1023
1023
1023
1023
1023
1023
1023
1023
1023
1023
1023
1023
1023
1023
1023
1023
1023
1023
1023
1023
1023
1023
1023
1023
1023
1023
1023
1023
1023
1023
1023
1023
1023
1023
1023
1023
1023
1023
1023
1023
1023
1023
1023
1023
1023
1023
1023
1023
1023
1023
1023
1023
1023
1023
1023
1023
1023
1023
1023
1023
1023
1023
1023
1023
1023
1023
1023
1023
1023
1023
1023
1023
1023
1023
1023
1023
1023
1023
1023
1023
1023
1023
1023
1023
1023
1023
1023
1023
1023
1023
1023
1023
1023
1023
1023
1023
1023
1023
1023
1023
1023
1023
1023
1023
1023
1023
1023
1023
1023
1023
1023
1023
1023
1023
1023
1023
1023
1023
1023
1023
1023
1023
1023
1023
1023
1023
1023
1023
1023
1023
1023
1023
1023
1023
1023
1023
1023
1023
1023
1023
1023
1023
1023
1023
1023
1023
1023
1023
1023
1023
1023
1023
1023
1023
1023
1023
1023
1023
1023
1023
1023
1023
1023
1023
1023
1023
1023
1023
1023
1023
1023
1023
1023
1023
1023
1023
1023
1023
1023
1023
1023
1023
1023
1023
1023
1023
1023
1023
1023
1023
1023
1023
1023
1023
1023
1023
1023
1023
1023
1019
1023
1023
1023
1023
1023
1023
1023
1023
1023
1023
1023
1023
1023
1023
1023
1023
1023
1023
1023
1023
1023
1023
1023
1023
1015
1023
1023
1023
1023
1023
1023
1023
1023
1023
1023
1023
1023
1023
1023
1023
1023
1023
1023
1023
1023
1023
1023
1023
1023
1023
1023
1023
1023
1023
1023
1023
1023
1023
1023
1023
1023
1023
1023
1023
1023
1023
1023
1023
1023
1023
1023
1023
1023
1023
1023
1023
1023
1023
1023
1023
1023
1023
1023
1023
1023
1023
1023
1023
1023
1023
1023
1023
1023
1023
1023
1023
1023
1023
1023
1023
1023
1023
1023
1023
1023
1023
1023
1023
1023
1023
1023
1023
1023
1023
1023
1023
1023
1023
1023
1023
1023
1023
1023
1023
1023
1023
1023
1023
1023
1023
1023
1023
1023
1023
1023
1023
1023
1023
1023
1023
1023
1023
1023
1023
1023
1023
1023
1023
1023
1023
1023
1023
1023
1023
1023
1023
1023
1023
1023
1023
1023
1023
1023
1023
1023
1017
1021
1019
1020
1007
1023
1017
1022
1023
1022
1017
1020
1017
1012
1023
1023
1023
1023
1023
1023
1023
1023
1019
1020
1019
1020
1017
1014
1017
1020
1023
1020
1023
1023
1023
1023
1023
1020
1001
998
994
988
973
980
996
1008
1023
1018
1017
999
1010
1003
1022
1001
1005
1009
973
978
970
973
985
957
992
978
1010
996
982
998
928
941
956
916
934
954
890
871
892
889
887
884
826
870
914
890
796
937
901
887
934
863
902
948
921
928
942
954
918
914
902
932
953
992
909
896
951
902
917
937
911
902
882
915
882
898
900
921
957
884
886
898
851
836
811
804
804
790
746
658
710
684
719
748
724
710
742
734
706
726
729
725
758
731
707
766
726
724
751
756
750
802
734
746
738
756
769
772
772
754
762
743
754
780
779
749
774
766
766
767
774
765
791
804
818
806
834
810
800
801
781
804
786
786
794
786
796
793
800
790
802
810
799
794
820
905
895
911
898
906
914
906
928
929
949
884
946
871
930
954
943
941
941
941
958
983
902
912
916
897
884
964
946
923
914
898
932
875
900
933
899
926
954
918
877
921
860
1012
849
851
932
953
852
948
870
898
950
955
868
953
996
941
926
914
930
908
873
996
900
914
927
926
880
909
927
928
892
886
914
902
898
908
943
884
924
926
896
922
922
908
872
900
884
902
851
882
890
879
872
892
893
902
918
926
882
892
895
853
852
867
850
835
836
833
860
860
842
848
850
851
804
785
788
788
794
778
786
800
795
800
812
806
818
822
806
828
833
812
812
807
803
807
802
807
793
790
796
786
775
784
775
790
776
782
790
778
774
778
774
774
777
768
780
770
766
774
763
768
761
768
788
774
755
771
772
749
772
768
754
763
752
755
756
769
749
759
762
752
763
735
757
753
756
764
762
752
755
747
764
753
751
750
755
747
752
752
740
737
740
740
742
742
746
731
748
749
756
780
778
771
766
766
748
729
736
743
742
731
734
730
740
733
740
742
734
735
739
730
740
737
740
740
735
738
742
735
742
737
748
750
742
739
746
727
748
742
750
738
731
730
722
726
717
727
724
710
710
714
715
718
717
711
724
710
706
722
707
708
713
708
714
706
702
710
708
705
709
708
703
688
710
706
707
708
708
706
699
702
707
702
693
700
702
695
694
691
692
697
695
708
702
688
698
694
694
696
702
694
694
699
698
692
697
694
700
690
675
688
678
687
681
692
692
682
688
699
707
710
728
716
716
702
675
670
675
684
685
684
684
678
674
688
675
684
681
692
678
683
688
675
692
681
687
692
683
683
688
692
693
700
703
698
691
695
691
692
689
692
679
670
674
666
676
669
668
672
667
666
670
667
676
663
676
662
659
662
659
668
657
668
668
666
659
666
666
668
665
668
672
662
659
663
658
662
665
662
663
662
658
658
660
653
668
668
658
658
658
658
660
659
653
668
658
662
651
660
655
663
662
662
656
658
659
661
655
654
668
646
646
656
650
655
653
656
654
656
651
658
663
684
685
694
686
674
666
646
642
653
649
656
652
658
650
647
650
652
653
660
660
650
656
656
650
660
665
660
662
662
658
663
659
668
665
676
676
666
670
667
659
672
661
668
668
658
650
656
650
652
653
652
652
646
643
646
635
652
649
646
652
650
642
646
642
647
649
644
652
640
634
651
642
646
649
645
646
646
643
642
643
645
641
640
646
642
640
642
642
639
649
646
638
640
634
642
640
644
633
636
644
640
634
642
642
640
643
646
646
646
646
646
642
644
649
644
646
635
635
638
634
644
637
638
636
642
642
650
659
668
673
663
662
658
634
624
635
644
641
646
638
642
635
642
635
640
645
644
644
635
642
640
647
649
648
652
650
646
650
646
652
655
660
662
662
658
658
659
662
653
653
654
643
643
642
635
644
641
632
634
634
634
634
636
629
636
644
635
634
630
634
636
623
638
638
634
631
635
635
637
637
638
644
631
635
634
626
636
633
636
638
630
626
634
631
629
637
636
640
631
626
626
626
637
633
636
636
634
631
642
634
639
633
639
638
634
635
634
627
629
623
628
630
626
626
631
627
636
632
646
662
666
659
654
650
652
617
628
636
630
627
630
627
631
633
636
640
635
630
640
630
628
637
637
647
642
635
640
634
644
641
652
646
650
656
646
643
660
653
652
660
642
642
642
640
638
637
644
636
624
634
634
627
629
628
636
618
624
630
634
636
633
636
630
630
630
630
627
636
625
632
636
634
631
634
626
636
633
632
636
627
627
630
632
633
628
631
634
627
627
627
639
633
629
636
634
626
634
630
636
633
636
636
631
630
627
624
636
629
636
640
634
626
634
627
628
629
629
636
630
627
634
643
661
669
668
660
651
627
618
624
638
637
630
644
630
627
631
630
636
633
636
644
634
631
634
634
644
639
644
646
642
642
642
642
652
653
654
656
650
650
656
646
654
653
645
654
640
635
642
630
636
637
630
638
626
630
634
630
638
637
636
644
630
630
630
636
633
631
638
630
634
627
630
636
633
644
636
630
640
627
629
633
639
644
634
627
634
626
637
636
636
626
634
634
627
636
633
637
640
630
634
630
627
628
637
644
644
635
640
634
635
638
633
644
638
631
627
634
630
629
629
636
634
635
643
663
668
677
664
662
651
619
634
631
639
637
638
644
642
635
635
634
644
639
644
646
642
642
635
640
644
649
640
646
646
650
646
650
653
657
660
668
658
656
658
658
653
649
647
652
650
635
646
635
644
635
639
644
634
634
638
640
637
641
644
644
634
635
642
635
636
637
638
646
642
640
635
644
637
644
644
640
642
640
640
638
639
644
644
640
634
640
637
637
644
644
642
640
634
642
636
639
644
644
640
643
640
639
641
647
654
646
642
642
642
646
639
644
644
627
635
640
635
647
637
644
652
646
656
674
678
676
669
672
660
626
635
646
642
644
641
644
652
646
650
650
643
644
645
652
652
651
642
650
658
653
653
653
660
662
658
670
656
665
672
672
674
659
666
659
660
664
660
660
650
651
643
646
649
648
652
646
642
642
642
652
649
648
652
650
642
646
643
654
649
646
652
650
651
650
643
646
645
653
652
647
646
646
642
652
649
652
647
642
647
651
642
639
649
654
650
643
650
643
652
649
652
652
658
642
656
650
660
653
656
662
656
646
650
646
653
649
645
652
646
643
647
643
652
648
660
672
682
678
690
675
676
669
638
652
658
658
651
652
653
660
654
658
651
658
656
660
664
660
668
662
658
666
658
663
665
676
676
670
667
679
670
679
680
678
675
670
674
667
668
669
660
662
650
656
658
656
660
657
655
662
651
651
656
658
654
657
654
660
662
656
658
656
660
655
660
668
658
659
662
658
660
657
660
668
656
656
662
656
655
665
660
662
658
651
662
650
668
665
660
663
658
650
659
660
664
661
660
659
658
666
659
668
665
662
672
662
659
662
658
660
665
660
660
658
658
654
659
668
681
692
702
690
688
690
667
660
653
668
668
666
666
662
662
668
665
661
668
662
663
666
666
672
665
672
684
671
666
675
675
679
677
692
686
683
683
690
700
675
686
694
674
666
682
670
672
673
676
672
666
666
658
662
662
665
662
672
662
659
662
662
668
669
662
668
666
667
659
668
665
668
668
659
662
670
658
672
657
660
676
662
663
666
662
665
672
672
659
659
667
662
668
665
668
668
670
666
656
666
676
669
678
672
674
671
658
659
663
665
668
668
658
662
666
658
660
667
676
692
694
699
698
691
695
669
654
672
663
670
666
663
676
673
672
678
670
667
670
671
672
680
680
684
678
674
686
678
684
685
686
695
690
690
698
690
694
694
700
699
691
694
682
685
680
684
676
671
666
674
671
676
673
676
678
679
667
674
670
676
669
676
684
674
675
674
679
681
676
678
674
674
675
679
678
680
677
684
678
675
678
675
677
680
676
684
682
675
678
675
692
681
685
686
690
690
682
684
683
684
684
678
671
679
675
684
685
684
679
682
690
702
715
716
713
700
703
688
666
679
682
693
689
692
692
690
688
678
683
692
697
692
695
694
690
698
691
692
697
703
702
699
699
702
694
708
713
716
716
714
707
703
707
708
705
701
702
702
691
698
690
695
693
692
692
694
690
694
691
695
697
694
690
694
694
691
695
697
700
703
694
691
699
691
700
697
700
700
695
691
694
694
700
697
700
703
694
694
694
694
700
701
700
702
706
707
698
699
701
697
700
700
695
691
698
694
697
695
703
707
714
726
727
736
713
732
710
688
694
702
704
705
700
710
702
702
702
703
703
705
709
711
706
699
703
706
716
709
716
716
707
707
722
707
726
717
724
726
726
720
726
715
716
705
708
716
710
706
710
702
708
707
703
708
706
698
699
709
705
711
708
707
707
706
699
710
712
708
711
706
706
702
708
705
711
710
706
707
707
702
716
712
708
711
710
706
706
716
717
716
710
710
714
714
711
717
717
716
716
702
707
706
703
710
712
708
716
710
714
714
731
742
745
748
730
714
702
702
716
713
716
718
715
714
711
715
724
713
720
722
715
722
722
725
713
724
726
726
723
727
731
736
733
740
736
734
734
734
735
736
729
736
732
722
714
722
714
716
713
718
724
720
711
720
715
724
717
719
724
722
715
714
711
716
719
719
724
718
715
722
715
724
719
719
724
720
714
720
722
724
717
717
726
715
720
722
720
716
721
724
726
722
722
722
722
732
729
724
726
722
723
722
725
733
724
726
723
714
715
714
724
719
724
718
726
726
752
739
764
751
749
750
726
711
726
723
726
721
724
723
723
722
731
732
729
732
736
730
723
734
726
740
735
740
736
738
739
739
742
748
749
748
748
746
743
746
746
749
741
748
730
723
726
723
732
729
736
732
730
723
730
722
732
729
732
740
730
731
730
726
727
735
736
736
727
730
726
723
736
731
736
740
726
730
727
723
736
729
736
736
731
730
726
730
741
733
736
736
723
730
734
731
732
733
736
740
730
734
734
735
740
733
740
740
731
727
730
726
736
733
736
743
734
731
742
747
764
765
772
758
758
735
722
723
740
737
736
740
731
730
735
731
740
737
742
748
738
738
738
738
748
745
748
748
742
738
743
742
748
751
757
756
752
754
754
754
756
751
751
756
738
735
739
735
741
741
740
742
734
731
735
735
732
733
740
742
735
735
735
734
740
731
740
740
734
734
738
735
748
745
741
740
735
734
734
731
740
729
741
740
735
734
731
740
733
743
748
739
739
738
735
736
733
748
748
738
730
735
730
742
745
743
748
746
738
739
742
740
737
740
750
735
735
731
735
740
745
748
740
734
735
754
758
772
771
768
772
762
731
726
738
748
737
741
756
742
734
742
730
748
747
742
748
746
739
752
739
743
745
751
748
754
754
754
747
757
761
764
764
758
752
754
758
756
753
756
756
754
735
742
731
742
741
743
738
734
739
730
741
735
740
748
739
734
734
735
740
740
742
738
734
734
738
741
745
743
742
738
739
742
746
739
743
748
739
739
739
731
741
745
748
742
739
735
738
734
742
745
741
748
739
735
738
738
748
733
742
742
746
739
746
735
748
745
748
742
739
735
742
734
743
737
742
740
738
731
742
747
757
769
780
780
763
762
754
730
740
745
748
748
747
739
742
743
749
745
743
756
746
743
747
746
748
753
756
756
754
739
754
747
764
755
764
768
763
755
763
758
768
765
768
758
754
746
739
750
747
748
748
738
742
746
731
743
745
748
742
743
734
742
739
740
747
748
748
743
746
738
734
741
745
748
748
743
743
742
738
748
745
748
748
738
739
739
742
748
741
748
748
738
739
746
742
745
742
748
746
734
742
739
748
739
750
742
739
743
739
742
749
748
758
742
739
754
743
749
747
748
748
738
746
746
734
740
745
740
748
746
743
752
766
773
779
772
768
763
738
738
742
741
749
748
748
746
738
746
743
741
756
756
742
742
754
747
750
751
750
764
752
755
758
754
759
755
764
772
766
762
763
762
768
760
759
756
746
746
754
746
745
748
750
752
738
746
739
748
745
749
750
746
739
742
742
740
745
748
750
739
746
746
742
749
745
748
756
746
746
735
756
749
748
750
746
743
742
735
748
745
748
748
739
743
743
741
745
740
748
742
746
746
742
748
745
748
756
747
742
742
742
748
745
751
750
747
743
746
752
756
749
750
750
746
742
742
739
742
749
741
750
743
742
754
767
780
781
780
774
766
739
734
743
756
751
748
758
746
746
743
748
751
756
756
755
754
754
754
764
761
768
768
758
754
762
762
772
769
772
772
763
767
770
763
772
777
764
764
762
754
754
752
750
749
756
756
754
747
755
752
750
751
756
756
747
752
754
746
756
753
756
758
752
754
750
752
756
751
750
756
754
754
752
752
756
751
756
756
754
747
752
746
748
755
748
756
752
755
752
754
756
751
756
758
754
746
754
752
743
751
756
759
758
754
758
754
756
761
756
756
752
747
752
752
756
749
756
756
746
746
759
770
780
785
780
780
770
742
735
739
755
756
752
755
754
762
754
750
761
758
759
754
754
755
755
764
761
756
764
762
758
762
759
772
769
772
780
770
775
766
764
769
768
772
752
754
755
754
758
751
756
758
754
754
747
755
756
753
756
758
747
752
754
746
758
753
756
758
754
752
754
752
748
755
764
764
754
752
752
747
756
757
756
746
746
754
747
756
751
756
759
758
754
754
746
753
759
756
752
754
754
754
756
761
756
768
750
754
758
754
764
753
756
756
752
746
742
743
756
749
756
758
747
746
758
767
780
792
788
780
779
754
742
752
751
760
756
758
754
754
754
764
753
759
759
755
755
758
759
764
761
768
764
763
762
766
762
772
767
772
780
774
771
771
770
772
769
772
772
762
759
759
754
757
757
756
756
752
746
758
752
750
760
750
756
758
752
754
746
749
751
751
768
754
754
747
754
756
745
758
759
754
747
754
754
750
761
756
756
752
754
754
752
758
760
756
758
752
754
754
754
756
749
756
756
752
754
755
752
756
760
756
764
755
754
754
752
756
751
748
752
754
754
747
749
747
750
772
766
786
786
778
780
777
764
748
746
754
754
754
756
761
757
758
754
754
763
742
758
761
759
764
762
754
762
762
764
761
772
772
766
771
770
767
780
777
772
780
766
770
766
763
764
761
764
756
762
752
752
754
758
749
751
756
754
754
754
746
756
751
756
758
752
754
754
754
751
755
756
759
754
747
754
754
757
757
764
754
746
752
754
748
745
756
764
754
752
752
739
751
749
756
758
754
754
754
754
756
749
759
756
754
758
755
758
749
758
756
754
754
746
742
756
751
756
750
747
746
758
762
780
783
796
780
778
766
738
735
757
753
758
756
758
746
754
752
756
753
764
758
754
752
759
755
764
756
768
762
763
766
763
772
776
772
780
774
770
774
767
777
768
772
758
758
758
754
756
753
756
756
754
752
754
746
751
753
750
758
754
754
754
752
750
751
756
756
752
747
755
752
756
751
757
756
754
754
754
752
756
751
748
764
754
752
754
747
756
755
756
756
754
754
754
754
756
747
751
764
754
754
754
752
758
763
758
764
758
755
752
752
756
753
751
756
754
747
754
742
756
761
780
788
794
775
778
767
745
756
768
754
762
754
754
758
761
764
768
762
755
758
754
758
765
764
768
766
762
759
759
773
767
772
780
770
771
778
770
774
777
773
782
770
763
763
758
758
761
758
759
754
758
754
757
757
757
758
759
754
758
754
756
761
758
758
754
754
755
758
751
756
768
758
758
755
755
756
757
768
755
752
759
755
759
760
759
758
755
755
762
752
759
761
764
764
754
754
759
758
768
761
764
772
758
754
758
754
756
760
756
768
755
754
758
754
768
769
796
804
786
775
784
755
749
761
764
768
754
755
763
759
758
761
772
768
758
762
762
758
768
771
764
780
770
767
770
766
772
777
788
778
778
774
784
780
783
781
775
766
763
766
762
768
761
768
768
758
754
758
758
756
761
764
768
758
755
758
754
759
753
764
764
754
762
762
754
757
765
764
764
762
755
758
747
757
760
758
758
758
754
754
755
764
755
757
759
755
755
754
755
758
755
768
758
762
763
762
772
763
764
772
758
754
762
754
764
764
768
758
754
754
755
768
771
789
800
790
778
784
751
761
764
772
762
754
754
754
768
761
772
768
762
755
758
772
763
768
774
770
766
770
763
773
777
780
780
775
774
784
779
780
777
780
780
770
755
771
766
764
765
764
759
762
758
754
756
761
768
768
758
752
759
754
764
757
768
758
755
759
754
764
763
764
764
762
758
758
755
768
761
756
768
754
755
759
758
764
753
758
768
758
755
758
754
764
755
768
764
754
755
766
762
768
761
764
768
763
759
758
764
753
757
764
755
754
754
754
756
751
764
772
784
787
798
787
783
783
764
756
759
758
758
755
764
763
768
768
763
755
766
762
768
765
764
772
763
762
770
766
772
765
780
780
774
766
778
774
781
777
782
780
779
771
775
767
780
767
772
772
766
759
754
754
759
761
764
772
758
755
762
759
761
768
768
762
755
763
762
764
761
768
768
758
758
762
764
761
764
758
762
755
762
755
768
753
768
772
762
762
759
755
764
755
757
768
758
754
758
762
764
763
768
768
762
759
770
762
759
771
764
768
758
752
762
754
768
761
757
758
754
762
763
763
790
797
796
788
786
762
743
754
761
764
768
763
758
766
762
768
761
768
768
766
758
762
772
769
774
780
774
763
770
771
780
777
781
782
778
775
786
778
780
781
781
774
770
759
762
762
764
763
768
768
766
762
766
754
759
757
756
768
762
755
758
763
758
755
764
768
755
758
762
754
768
761
757
772
762
759
758
752
758
761
768
768
758
758
763
754
768
765
756
768
758
762
766
754
761
764
768
759
755
762
758
772
765
768
772
758
766
766
762
768
761
764
772
762
754
747
755
759
745
764
764
754
758
770
786
796
793
788
790
774
739
754
762
764
761
759
772
766
755
762
758
772
761
768
772
766
766
770
763
764
767
772
767
774
775
771
775
781
780
788
784
778
778
778
780
772
772
766
754
762
755
756
761
768
768
758
755
759
758
758
761
756
772
762
759
758
755
764
761
764
764
754
755
754
762
764
761
768
768
762
762
762
755
756
761
759
768
762
762
755
768
761
764
768
758
758
758
752
764
761
764
759
758
754
766
755
768
765
772
764
766
758
763
755
772
765
764
754
754
762
754
757
761
759
768
766
784
786
790
791
783
780
750
746
754
762
762
759
761
764
768
763
758
758
764
761
764
768
762
763
770
763
775
769
774
780
770
770
784
778
788
783
788
788
786
778
778
767
780
776
768
772
766
762
762
755
764
753
764
772
758
755
762
754
772
761
768
759
754
758
754
757
761
764
768
758
754
758
758
759
751
768
768
758
755
759
754
768
761
758
758
754
762
758
754
764
761
764
764
758
758
758
757
769
768
772
767
758
762
762
757
753
764
764
759
754
755
762
756
755
757
764
767
786
794
786
782
783
768
748
758
766
758
764
761
756
768
766
762
767
759
772
765
772
772
766
762
770
770
773
777
773
780
774
771
779
771
788
779
788
790
779
779
778
770
780
767
772
772
762
762
762
755
761
758
759
758
758
754
759
758
761
768
768
758
762
762
759
764
763
756
768
758
759
766
755
759
769
768
764
758
758
763
758
772
751
768
772
762
758
762
762
764
765
764
768
758
754
755
755
764
760
768
768
759
755
762
758
780
797
796
800
786
778
762
746
756
761
768
764
762
758
758
762
764
765
772
772
770
762
766
762
768
771
768
773
774
766
770
778
780
777
788
782
786
784
778
775
788
776
780
780
771
763
762
768
760
764
768
759
754
762
759
764
761
764
764
758
758
754
758
761
764
768
759
754
766
762
764
755
768
772
759
762
758
755
768
763
756
764
762
754
759
758
764
757
768
772
766
763
766
758
758
761
758
772
754
754
762
754
772
761
759
755
755
770
778
789
797
796
788
771
746
755
755
759
761
773
768
762
762
759
759
764
761
768
759
762
766
770
766
769
772
780
767
770
770
771
780
777
782
788
786
786
778
770
775
777
772
768
770
763
766
758
768
761
757
768
758
766
758
764
761
758
768
759
754
758
754
759
765
772
768
762
758
754
755
758
761
768
764
762
754
762
754
757
761
764
768
755
747
759
754
756
761
759
772
766
755
763
758
768
769
759
772
758
755
762
754
756
760
756
764
758
754
762
762
780
781
796
800
786
774
770
743
749
765
764
768
762
754
759
772
757
764
768
762
762
762
759
768
763
768
774
770
759
775
767
780
777
781
780
784
771
778
774
780
783
772
780
770
766
766
763
764
761
764
764
762
754
758
758
768
761
758
754
762
758
762
768
763
764
768
762
755
754
762
772
761
768
762
762
762
758
758
761
764
768
762
755
759
758
764
761
764
768
758
758
762
754
772
767
772
772
766
755
762
768
765
764
768
762
759
759
754
764
761
756
768
771
790
787
783
787
772
756
758
755
763
754
764
761
764
772
754
759
770
755
768
769
773
772
770
762
771
771
772
769
772
780
774
778
778
778
788
783
788
788
778
786
779
775
780
769
772
766
759
754
754
768
753
768
768
762
755
766
755
768
761
764
764
759
754
758
763
764
765
768
764
762
755
758
768
761
764
768
759
759
762
758
757
761
768
772
759
754
766
755
764
761
764
772
755
754
762
762
772
761
768
772
766
762
763
754
764
757
764
758
754
754
759
752
757
761
768
780
786
787
786
786
788
757
748
758
766
762
766
754
758
765
768
768
763
755
766
755
764
769
768
774
770
770
770
766
765
780
788
778
774
778
779
788
783
780
788
786
774
770
767
772
761
768
772
758
759
758
754
758
761
764
772
758
759
759
762
764
755
768
768
759
758
763
755
764
767
768
772
763
754
762
759
768
761
772
768
766
758
758
754
764
761
768
768
758
762
759
758
764
758
759
762
762
762
767
768
769
772
768
762
762
763
754
753
756
768
754
755
754
759
768
765
789
800
795
779
786
774
748
761
764
772
759
754
762
762
772
761
772
772
766
762
755
768
765
772
780
771
767
778
763
773
777
781
783
786
779
778
780
781
780
782
774
774
770
762
764
761
768
762
754
758
758
768
755
768
768
762
762
759
762
764
761
764
764
766
762
766
762
764
761
768
758
759
759
762
754
764
761
764
772
758
747
766
754
764
761
759
768
758
758
758
755
768
765
764
764
763
758
770
766
772
767
768
772
770
755
758
758
761
756
768
758
754
755
754
764
767
783
796
790
778
766
748
761
764
768
762
758
758
755
768
765
768
768
763
755
762
762
768
769
772
772
778
763
770
771
780
779
788
762
784
778
784
781
783
782
788
774
762
766
763
768
768
764
758
762
759
758
756
757
759
764
766
755
758
762
759
753
750
758
758
755
762
754
768
761
759
768
766
754
759
758
768
765
768
768
762
763
754
755
764
749
768
772
754
758
759
759
756
765
764
772
766
763
766
763
772
765
768
772
758
759
758
752
759
760
764
768
754
755
758
762
764
769
788
798
786
784
763
748
755
768
768
766
755
766
755
768
763
768
772
766
762
762
763
768
777
772
774
774
771
774
770
780
777
783
788
779
778
784
786
788
785
780
788
778
771
770
759
768
769
768
764
758
755
762
754
758
761
764
768
759
758
758
758
764
761
764
768
762
762
766
759
764
765
764
772
759
758
763
764
761
768
768
766
762
758
755
764
761
768
766
762
758
754
764
761
768
772
762
762
766
763
768
765
764
759
758
763
758
759
761
764
772
774
787
794
795
790
781
772
750
758
758
762
763
764
761
768
772
770
766
766
773
769
772
775
767
770
770
767
774
777
772
782
778
771
774
774
780
777
780
788
786
778
770
771
780
769
764
764
758
758
762
758
768
761
758
768
762
758
762
755
764
761
764
764
754
754
770
763
764
761
772
772
758
758
758
763
768
757
764
764
758
754
758
755
758
761
764
768
755
752
758
755
764
761
759
772
766
762
766
762
768
761
764
768
759
754
758
755
764
761
756
772
763
755
766
762
791
793
800
789
784
766
746
754
764
761
764
772
758
758
762
759
764
761
768
758
754
755
758
762
772
769
764
772
763
767
762
770
780
781
780
780
778
786
784
780
777
780
780
770
763
766
759
764
761
756
758
755
762
755
768
761
768
768
758
758
758
754
764
761
757
768
762
755
755
754
764
761
764
759
758
754
763
755
764
761
758
764
758
747
762
758
759
761
758
768
762
762
758
768
760
772
772
762
758
766
763
764
763
757
768
754
762
755
755
764
760
756
772
762
787
790
786
788
781
772
752
755
762
758
758
756
761
768
772
763
762
762
755
764
765
768
772
762
767
774
767
772
777
773
774
774
778
771
778
788
785
788
788
784
784
774
778
772
769
768
772
766
762
763
752
759
761
764
768
758
759
758
757
765
764
772
758
762
762
758
768
761
768
768
763
762
755
755
768
761
768
768
767
758
762
759
768
761
764
764
762
755
763
759
764
765
764
768
762
754
763
755
772
765
768
759
759
766
762
757
761
756
768
758
755
762
762
761
757
772
778
786
794
791
788
779
772
750
754
758
755
764
761
772
772
770
759
762
759
768
761
772
772
766
762
770
766
774
777
772
788
778
771
774
775
781
783
781
788
787
775
778
766
772
763
772
772
762
758
759
759
759
761
764
764
758
758
762
758
768
757
768
758
758
762
762
755
761
768
768
762
755
754
754
756
760
756
768
758
755
758
754
764
761
764
764
758
754
758
758
764
763
757
758
758
759
758
759
764
761
756
772
762
755
762
762
768
763
772
772
755
754
755
764
761
764
764
758
754
754
759
772
785
796
790
786
770
746
751
761
772
768
758
759
763
754
764
761
759
772
766
758
767
763
768
761
772
772
767
767
763
763
780
777
781
782
778
770
784
778
780
779
780
774
770
762
762
755
768
761
772
768
758
754
762
758
758
761
757
768
755
762
755
756
761
764
768
758
762
758
754
768
761
768
768
759
758
766
762
768
761
768
772
766
758
762
758
764
765
768
768
754
754
770
762
759
761
768
772
766
755
758
759
764
761
772
768
766
758
766
763
773
761
764
772
763
758
762
758
761
768
768
762
762
758
752
772
769
788
791
794
778
786
786
764
749
768
772
766
762
762
767
768
761
768
768
766
767
766
772
771
773
780
774
770
778
770
780
781
783
788
786
786
790
778
783
783
788
788
784
767
770
771
772
761
775
768
766
766
762
758
764
763
768
772
766
759
762
762
764
761
759
772
766
758
767
762
764
765
764
772
763
755
762
764
761
768
764
766
762
754
755
764
760
768
772
762
763
766
752
758
761
768
768
759
762
762
755
756
765
756
758
755
762
754
772
769
768
774
762
755
762
766
772
761
758
754
754
758
755
756
763
759
764
763
786
794
798
788
781
781
750
754
759
762
754
756
761
768
768
763
763
762
763
765
768
780
774
763
767
766
774
769
773
780
778
778
784
784
788
781
788
796
786
778
784
775
780
777
775
775
770
754
762
770
764
763
768
772
770
755
758
762
768
763
757
768
766
763
762
762
772
761
772
772
770
762
763
763
768
765
772
774
763
762
762
766
772
767
768
768
770
762
766
763
768
765
768
780
770
762
766
767
772
771
768
768
770
758
766
762
768
769
772
780
770
763
774
759
772
761
768
772
766
762
763
770
768
765
772
774
779
794
816
787
783
781
764
759
762
770
763
780
763
772
772
770
770
770
771
772
771
772
780
778
771
778
779
780
776
788
788
779
779
778
778
788
793
796
796
786
774
775
775
769
775
774
770
762
766
766
768
765
768
772
766
762
762
762
764
761
764
768
762
755
766
762
768
765
768
772
762
755
762
763
768
761
772
772
763
762
758
755
756
751
764
764
759
754
754
758
764
765
756
768
762
762
766
762
764
761
768
772
770
762
766
762
772
765
764
768
766
762
762
758
759
763
768
768
758
758
758
759
772
779
800
804
790
778
786
756
765
768
772
766
762
762
763
768
777
772
780
767
758
766
772
776
772
780
774
771
774
771
780
777
780
796
790
779
786
786
788
785
788
788
778
774
770
770
772
761
772
772
762
766
762
764
761
768
759
758
755
762
754
764
761
764
768
754
758
758
768
761
759
772
766
759
759
758
759
761
768
768
763
762
767
759
764
753
772
772
758
759
759
759
768
761
764
764
766
762
763
762
772
765
772
775
766
759
766
762
768
761
764
768
755
754
762
754
772
761
772
768
771
786
794
794
789
781
788
764
755
762
763
762
764
765
772
772
762
754
766
762
768
763
772
772
762
774
774
763
774
767
780
780
778
778
778
775
777
789
800
778
784
779
770
782
765
764
772
762
754
758
755
764
761
757
764
758
755
754
759
764
753
764
764
754
759
754
755
772
761
764
768
755
758
762
759
768
761
764
768
762
755
754
768
761
772
772
755
754
762
754
759
765
756
768
758
766
759
772
763
768
772
766
759
762
763
759
761
764
758
755
758
762
764
761
768
764
774
787
794
798
789
781
772
750
754
755
758
762
780
765
768
768
762
762
766
763
772
765
768
766
770
771
771
780
779
782
782
784
774
778
784
789
785
788
786
786
784
774
780
769
772
772
770
766
766
767
772
761
772
768
762
763
762
763
772
765
772
774
762
762
766
758
768
768
768
767
766
766
763
768
765
772
768
763
766
771
763
772
769
772
772
770
759
767
766
773
769
773
772
774
767
770
767
773
761
780
780
770
763
766
759
772
765
772
768
763
767
770
783
793
815
812
790
786
770
739
772
765
772
768
770
763
778
774
772
776
773
774
770
771
770
774
782
777
781
788
771
779
779
779
788
785
790
796
794
786
790
787
796
793
789
782
786
774
767
780
769
780
774
775
766
774
766
768
761
768
782
770
763
770
766
772
769
772
774
770
766
770
771
772
771
772
774
778
770
771
762
772
776
772
772
766
763
722
771
772
771
772
772
774
771
774
775
773
777
780
780
766
763
770
763
768
765
768
772
766
770
774
771
789
801
812
804
790
786
759
754
772
781
775
774
770
770
771
774
780
777
780
788
786
774
774
771
781
782
788
784
784
786
786
796
779
791
800
790
790
786
791
793
790
788
774
763
778
766
780
777
780
772
770
767
766
762
773
771
772
780
766
766
770
759
764
767
768
772
770
763
770
763
772
769
764
774
771
763
762
762
772
761
764
772
766
762
755
772
765
768
772
766
763
763
762
768
769
772
772
770
766
766
767
772
765
768
764
766
755
762
763
772
765
772
772
779
794
799
806
796
793
788
768
762
763
778
774
775
777
780
774
770
767
775
770
780
776
780
779
774
774
778
780
785
788
788
786
786
790
786
790
793
796
804
787
794
790
778
781
779
788
780
784
770
767
766
774
776
772
771
763
770
774
772
777
772
780
771
771
766
763
772
771
775
774
766
762
766
771
772
771
768
772
766
770
770
762
780
761
768
772
770
762
763
767
780
776
773
774
770
775
774
775
781
777
774
780
774
774
762
762
773
769
772
774
763
762
770
771
780
799
805
794
791
790
762
768
771
780
774
766
766
774
774
772
771
773
780
782
770
774
774
788
776
781
790
784
778
778
779
791
787
800
796
791
794
794
798
791
797
796
796
786
778
774
770
773
777
780
766
762
774
770
773
771
773
780
774
766
766
770
772
777
772
780
771
770
770
763
780
777
775
775
774
767
774
770
772
776
768
772
774
770
774
770
772
777
772
774
770
767
774
770
772
771
780
780
778
771
774
774
780
765
774
780
771
762
766
766
773
765
764
774
770
766
774
771
790
801
807
812
787
794
774
755
773
771
773
780
775
763
766
770
781
769
775
780
774
767
775
767
781
779
788
786
778
786
779
788
793
796
800
794
798
798
794
796
792
796
791
778
774
778
771
780
777
780
775
770
763
766
763
772
777
772
774
774
767
770
770
772
769
773
775
766
767
774
762
774
767
772
772
770
770
766
766
772
765
774
775
770
770
766
767
772
771
774
774
766
766
759
772
769
772
774
766
762
770
766
772
765
772
774
759
755
762
762
764
769
772
768
763
758
766
774
796
797
800
798
770
754
762
775
769
772
772
770
774
770
763
772
777
774
767
767
778
774
780
777
774
788
774
778
778
784
789
785
788
796
786
794
794
786
788
785
780
788
770
778
770
766
772
769
768
772
762
763
766
762
772
765
772
772
770
762
762
763
772
768
774
766
762
770
766
772
767
768
775
770
766
766
766
768
767
773
774
762
762
762
762
768
761
772
774
762
766
766
759
769
773
780
774
771
775
766
780
777
780
772
762
762
770
772
777
772
772
766
762
770
786
804
809
804
796
802
770
754
758
768
776
772
775
775
767
774
770
772
777
782
780
778
771
774
788
783
789
788
786
784
794
790
788
797
800
800
795
790
798
787
796
787
783
788
775
770
778
767
780
776
775
772
762
774
770
773
777
768
772
766
763
763
762
772
767
768
772
766
766
770
775
769
772
780
770
762
775
774
775
777
768
780
770
767
774
767
780
777
768
775
767
767
770
766
772
777
780
780
778
767
778
774
773
777
773
774
770
771
774
767
772
769
772
780
774
786
799
795
804
793
800
788
755
762
775
763
775
777
781
780
774
771
775
771
788
777
780
780
778
771
778
788
781
788
788
790
786
786
787
791
797
800
804
798
786
786
784
788
785
780
780
778
766
778
771
764
776
775
772
770
766
766
780
777
773
780
775
762
774
771
775
777
780
778
767
774
770
780
777
780
780
766
770
774
771
780
777
774
774
778
770
770
766
775
777
772
780
771
774
770
771
780
777
772
782
775
774
778
774
773
769
772
772
774
767
774
763
780
776
772
788
786
799
806
806
800
799
789
764
771
771
778
770
780
765
783
781
767
778
774
780
777
780
780
779
774
775
778
782
781
788
786
784
790
786
796
795
796
804
786
787
790
778
788
781
780
780
774
774
770
770
780
777
772
774
770
771
774
766
773
777
772
775
770
770
767
771
775
777
780
780
778
771
774
770
780
777
772
780
775
767
770
770
774
769
780
780
770
767
767
780
771
780
780
775
767
774
770
772
767
775
780
774
767
778
770
780
777
780
782
770
766
778
771
772
777
775
772
774
763
766
763
774
777
783
796
799
803
802
790
796
777
759
775
771
770
771
775
780
777
780
780
778
778
775
770
780
785
782
788
775
774
786
784
788
783
789
790
794
794
795
796
793
791
804
790
786
786
786
780
779
780
782
774
774
778
773
769
780
774
771
770
770
759
773
769
768
770
766
766
767
772
777
772
780
766
767
774
774
774
772
772
770
762
770
767
773
771
772
780
771
770
763
770
780
777
772
772
778
771
762
771
772
771
774
782
770
771
775
780
777
780
782
775
778
774
771
772
769
772
780
766
770
770
770
768
777
780
804
798
806
802
795
779
764
775
778
763
771
778
773
777
775
780
774
784
771
780
777
782
788
786
778
786
778
782
785
788
790
786
791
794
800
797
800
804
790
790
786
778
780
777
788
774
770
771
762
770
774
769
772
772
774
774
775
766
769
772
774
778
774
774
766
780
777
772
780
778
770
778
771
780
769
772
780
775
770
770
763
773
765
772
788
766
774
778
780
769
773
780
767
767
774
778
772
769
780
774
774
771
771
773
771
780
780
774
784
778
766
765
773
775
774
770
771
763
772
777
780
800
798
795
787
800
761
764
780
774
767
770
767
780
777
768
780
784
774
774
774
780
781
780
780
771
778
784
779
788
793
789
796
794
786
790
794
800
793
796
800
794
786
784
773
777
780
780
778
771
774
766
772
776
773
772
774
770
770
772
769
768
780
770
762
775
766
773
776
772
774
770
770
763
773
771
780
774
770
770
771
767
773
764
780
770
767
770
766
774
769
768
772
770
766
771
766
768
777
774
774
778
774
778
774
780
767
772
772
774
770
766
759
772
765
772
772
766
767
770
770
788
799
812
794
790
778
754
772
769
780
782
770
775
770
767
772
777
774
780
774
775
771
771
780
781
788
782
774
775
786
788
792
789
790
790
790
790
786
790
793
796
791
787
784
778
766
773
765
772
768
766
770
770
771
772
767
780
770
766
766
766
768
769
774
772
762
766
774
767
769
772
772
770
767
766
766
772
765
772
774
771
770
766
770
768
765
768
772
766
766
767
767
768
777
772
775
770
774
775
767
780
769
772
780
774
767
770
763
772
767
772
772
766
762
771
763
780
793
804
812
798
790
791
762
758
765
773
772
778
766
774
770
775
776
772
774
778
771
775
767
780
777
781
782
786
778
786
786
789
785
796
800
790
790
798
790
796
797
796
800
786
779
775
771
772
777
774
774
774
770
778
766
780
776
772
774
763
774
770
780
776
773
780
771
767
770
762
772
769
773
780
771
763
774
771
773
777
772
775
774
767
771
767
772
769
775
774
770
766
766
766
773
771
781
780
770
775
778
774
780
777
780
780
774
770
766
762
772
765
768
774
767
771
778
784
805
808
806
800
802
778
754
763
774
777
783
783
770
770
770
771
781
777
780
790
784
778
778
778
788
777
788
783
790
790
790
796
793
796
800
798
790
798
794
790
793
789
788
784
775
778
774
772
765
775
780
766
767
770
766
772
772
780
771
766
763
767
772
769
773
772
770
763
766
766
772
769
772
782
766
766
762
767
772
765
772
768
771
771
770
766
772
776
768
774
766
763
770
763
775
771
775
780
770
770
766
772
765
780
774
766
763
774
758
768
765
772
780
784
795
802
806
800
793
780
756
762
766
774
771
772
777
773
775
770
767
775
771
780
781
781
788
775
778
784
774
781
781
790
786
786
791
786
800
787
796
800
790
790
794
788
781
780
783
778
771
774
762
773
776
764
788
774
771
766
767
775
777
772
774
766
766
770
771
780
777
780
774
774
771
774
774
780
777
775
772
770
770
774
774
772
765
768
766
770
770
767
772
771
780
772
771
767
774
778
780
777
780
774
778
771
766
762
772
767
772
775
770
763
770
766
772
777
791
806
810
795
790
786
773
761
772
780
771
767
771
775
781
775
780
774
774
771
771
782
777
782
782
784
775
790
786
783
793
791
796
790
790
794
786
796
797
800
796
778
778
771
773
777
775
780
770
767
770
767
772
777
772
775
771
766
763
767
768
771
775
774
766
763
778
763
772
777
772
772
766
766
771
770
775
777
772
775
774
762
770
766
772
765
772
774
770
763
774
762
768
763
772
772
766
762
774
773
769
772
772
774
763
762
755
768
765
768
772
759
767
758
762
781
797
804
804
795
791
786
752
768
771
780
780
766
763
762
767
774
769
772
772
770
771
770
766
772
769
772
775
779
774
775
775
783
777
789
800
778
786
790
786
788
781
788
778
767
774
762
768
769
772
772
766
759
766
762
772
761
772
772
766
766
758
763
768
761
768
764
763
762
766
759
768
761
764
772
762
762
766
758
764
763
764
772
763
755
758
758
761
768
768
754
759
766
754
772
761
772
768
762
754
766
766
780
761
772
772
763
770
762
758
764
761
768
772
770
755
758
762
772
776
796
800
802
786
790
786
751
753
772
763
758
770
759
768
760
772
772
766
763
762
763
769
772
772
774
767
775
774
780
777
788
788
778
778
786
784
789
785
788
782
778
774
771
763
774
777
768
774
766
758
762
754
772
765
768
770
762
770
766
772
765
764
768
766
766
766
762
764
765
764
772
763
762
762
755
764
763
768
772
759
762
758
762
768
761
764
772
770
755
766
762
772
761
764
772
762
762
762
772
771
768
780
770
762
767
770
772
777
768
772
763
763
762
758
764
767
764
772
774
784
798
799
789
793
789
768
754
763
767
766
772
765
768
772
766
759
763
762
774
769
772
780
774
770
779
775
780
777
781
782
779
778
794
786
796
792
796
804
794
784
790
786
780
777
780
788
774
767
774
770
768
763
773
780
766
766
774
759
772
765
772
772
766
762
770
772
777
780
775
770
763
771
767
772
776
772
780
770
762
778
763
775
763
780
772
770
770
770
766
772
771
780
774
770
770
770
771
773
777
772
772
771
774
778
774
780
777
780
782
779
771
774
767
773
769
772
772
767
770
771
770
772
774
782
784
795
802
802
796
793
780
768
766
770
774
767
772
777
780
780
774
771
774
770
780
777
780
782
779
778
784
786
788
785
788
796
787
787
786
790
791
793
796
804
786
787
786
784
780
781
780
780
770
767
771
770
773
777
772
770
767
770
762
772
777
772
772
762
763
766
767
772
774
772
770
766
770
767
773
769
780
780
774
766
770
767
780
769
774
774
770
771
770
771
772
771
772
772
774
766
770
767
772
777
775
772
774
767
770
770
772
769
775
782
784
775
778
771
780
781
772
780
774
766
763
766
774
774
772
774
771
779
790
804
801
804
804
794
758
762
766
774
769
772
774
774
770
778
770
780
777
780
780
778
778
778
778
788
781
780
788
786
786
790
790
788
793
796
804
795
798
798
787
796
785
788
788
784
771
766
771
780
771
772
772
774
766
775
767
773
776
773
780
770
763
774
766
772
769
780
780
774
770
771
767
775
781
775
772
774
766
774
767
772
776
775
774
771
767
774
770
783
771
775
774
774
774
784
766
772
777
768
781
775
770
770
771
772
768
775
778
763
770
766
780
777
781
782
778
774
774
772
769
772
772
774
766
770
766
774
771
772
790
794
806
787
800
783
759
774
778
766
774
775
773
771
780
780
778
770
775
774
780
779
774
788
784
774
786
784
781
788
788
786
794
790
790
804
797
800
804
790
786
790
790
788
779
781
780
770
770
771
762
773
765
774
780
770
770
770
770
772
765
772
780
766
762
762
770
780
769
780
780
762
763
766
763
775
776
780
775
771
759
774
770
772
769
780
780
762
763
774
763
772
771
772
774
762
763
774
770
772
769
780
780
770
767
766
763
780
769
780
774
771
771
771
774
776
773
780
770
766
770
763
768
769
774
767
771
778
795
804
811
796
804
790
754
770
770
777
780
780
774
767
770
766
773
777
780
780
774
784
786
774
788
785
788
804
778
795
787
786
800
801
805
823
822
818
810
855
807
777
805
876
770
806
802
818
821
771
836
780
770
863
711
798
805
897
828
900
766
830
842
787
844
841
860
759
790
830
742
836
825
756
756
794
830
816
816
780
795
860
768
850
882
771
790
827
892
828
790
786
826
851
814
857
796
812
816
811
802
816
836
819
864
820
774
799
806
774
732
865
800
822
830
818
784
798
800
813
830
822
806
816
818
775
807
813
836
836
854
850
842
770
804
792
844
916
806
802
790
842
800
801
828
804
778
743
826
803
789
809
828
800
818
794
818
814
808
844
830
822
806
826
842
828
777
860
852
810
818
830
823
833
800
820
848
810
806
818
812
803
820
818
802
802
816
821
801
813
831
818
818
802
810
813
813
804
816
810
826
816
814
813
820
820
818
810
807
806
821
824
812
820
810
810
810
816
812
815
813
814
816
810
818
813
813
820
812
818
816
818
803
812
809
812
812
803
806
802
795
812
809
800
814
806
806
818
830
845
845
836
836
818
794
798
806
806
801
812
814
810
806
807
803
812
809
807
812
818
810
810
806
812
797
815
830
818
810
826
819
828
841
828
828
831
826
830
823
836
833
828
826
807
834
802
836
825
812
812
778
818
806
858
808
823
820
818
862
798
850
820
813
868
908
779
826
816
796
825
804
884
784
810
790
886
820
877
740
789
779
874
826
898
831
825
828
855
854
851
818
754
812
809
864
870
714
886
870
722
868
825
813
804
834
786
850
835
764
825
837
796
818
867
850
799
772
785
804
876
734
834
870
816
901
1001
802
850
804
781
831
836
854
786
799
834
783
857
768
768
834
830
827
850
791
877
876
908
798
855
848
810
841
831
844
834
826
822
839
828
840
796
839
826
835
862
814
809
821
804
802
838
830
822
829
817
821
800
822
818
830
790
820
809
829
831
822
810
810
810
820
841
804
822
831
830
826
812
815
828
828
818
826
822
819
836
809
828
838
826
819
816
819
836
825
830
830
838
826
826
819
829
835
837
830
830
827
834
822
836
833
836
828
819
826
822
819
836
825
823
836
827
826
850
858
855
857
852
852
830
818
838
827
836
833
828
837
830
827
830
834
836
827
839
836
838
830
830
834
838
840
844
845
850
838
850
842
852
857
847
860
854
843
843
850
847
841
837
844
834
823
826
831
836
833
836
836
827
819
822
834
833
829
844
831
830
830
826
828
833
823
831
827
830
838
834
829
833
836
836
830
826
830
826
831
833
836
844
830
822
826
829
841
844
844
830
822
830
830
829
827
836
844
831
822
842
830
844
840
836
844
838
819
826
826
831
833
836
838
826
827
827
827
844
861
868
884
854
842
842
818
828
825
836
838
826
827
838
830
836
833
838
836
831
834
839
834
836
833
844
839
839
838
850
845
849
852
860
851
851
858
850
853
857
852
852
842
842
842
835
836
835
828
839
830
826
831
830
844
832
831
836
830
823
826
823
836
833
828
831
830
831
830
826
837
827
831
844
830
834
830
835
831
833
837
836
834
826
831
826
828
832
836
846
834
830
830
826
836
833
830
836
834
826
831
834
837
840
836
838
838
827
827
831
825
828
836
822
822
831
826
836
833
837
852
863
866
850
864
827
823
828
826
822
838
831
836
833
829
831
831
834
834
836
840
836
846
839
835
839
834
845
841
846
847
850
839
848
850
847
845
844
852
838
842
838
834
837
833
828
830
818
834
823
823
832
829
844
834
850
850
842
820
841
815
876
850
850
810
918
828
889
845
887
802
843
866
866
864
873
847
868
830
848
818
838
844
827
869
844
854
831
839
830
822
801
852
828
838
810
871
818
935
813
828
878
838
898
970
779
841
884
814
898
880
834
827
909
799
812
864
866
882
826
818
941
833
869
940
843
850
822
874
813
801
876
935
818
816
822
800
859
886
965
858
798
886
842
812
861
892
839
816
922
834
930
844
813
864
854
863
830
871
822
868
847
868
868
858
818
854
870
839
841
844
870
866
850
806
816
844
781
877
820
831
838
850
854
820
833
812
838
834
834
830
826
828
833
845
830
822
827
822
864
819
829
852
838
819
818
819
836
849
836
823
826
848
839
835
846
841
844
844
850
842
839
830
852
824
852
854
838
848
854
859
839
825
839
844
858
830
850
838
841
846
854
854
866
874
867
876
865
868
836
834
850
854
842
852
849
847
846
850
850
850
850
854
857
860
864
858
854
854
854
860
863
868
868
863
863
862
862
876
873
876
876
874
862
870
862
868
857
854
854
850
850
854
850
852
856
855
852
850
850
850
850
847
847
860
852
850
842
850
850
847
841
836
864
854
850
850
848
853
856
852
855
850
842
850
848
856
855
853
848
839
850
848
855
849
852
852
838
850
838
863
852
857
852
860
858
843
854
848
860
857
860
864
851
850
850
842
847
845
844
847
850
848
850
848
852
865
876
887
870
870
858
851
836
847
853
854
851
848
850
843
852
857
853
850
850
858
850
855
861
855
868
854
858
867
854
868
863
868
871
871
866
870
867
876
863
876
876
862
859
859
854
853
857
844
846
854
850
848
850
855
845
847
852
848
848
850
842
852
847
852
844
848
842
850
848
844
845
852
860
850
842
850
850
854
845
853
852
850
843
850
848
844
849
852
854
842
850
848
853
841
852
846
842
835
854
850
845
849
852
852
855
850
850
854
852
845
855
864
854
843
850
850
844
843
846
853
850
850
850
868
875
884
884
871
863
850
835
844
857
845
860
850