834
836
833
836
844
838
834
838
838
845
843
847
852
854
842
850
842
833
844
844
830
826
827
818
829
833
821
822
826
818
826
820
832
828
831
818
816
823
819
828
815
820
823
818
818
819
818
828
825
822
830
818
818
818
818
820
817
823
828
811
819
826
822
820
827
820
823
826
822
819
811
820
825
821
828
818
822
818
822
822
825
820
820
822
818
822
818
820
825
822
823
818
818
826
822
820
825
828
831
830
818
819
818
815
820
823
818
818
818
816
820
825
836
844
854
850
850
842
852
833
813
820
826
819
819
818
820
825
828
828
826
819
818
822
828
825
836
836
830
827
834
831
836
833
836
846
839
838
838
838
852
845
844
846
848
839
842
827
836
833
829
836
826
826
826
827
828
827
828
828
822
819
827
818
822
825
828
828
826
819
823
822
822
817
828
829
822
822
822
823
825
828
828
826
822
823
823
828
825
828
828
823
822
822
818
829
825
828
828
822
818
822
823
828
825
821
830
826
826
816
819
821
817
820
831
826
818
823
830
827
828
828
830
818
826
822
828
825
820
828
822
818
822
818
828
833
828
846
850
850
850
838
838
833
812
820
823
823
830
819
828
825
829
836
826
822
826
826
830
833
836
836
826
827
834
830
830
833
838
844
838
834
842
842
852
845
844
852
842
838
838
834
844
825
831
828
830
818
818
819
821
825
828
828
823
819
822
818
820
819
820
828
818
822
822
821
825
823
823
826
818
818
819
820
825
828
820
826
816
822
818
822
825
821
822
826
818
818
816
828
819
828
828
822
807
822
818
821
825
820
822
823
818
811
828
824
821
830
822
818
823
823
828
825
828
828
822
818
811
822
820
815
820
820
810
818
826
830
852
845
837
838
838
818
806
807
820
824
820
820
818
819
822
818
825
823
821
826
816
826
819
828
825
828
836
830
826
830
827
836
841
844
839
834
838
839
835
844
841
836
844
822
818
822
821
811
820
828
818
811
818
810
828
825
812
820
816
818
810
828
813
820
820
818
818
818
816
821
825
828
822
818
816
810
818
821
817
822
814
822
818
818
816
820
819
821
830
816
818
816
816
815
817
828
820
818
811
818
816
823
813
812
820
818
818
822
816
822
825
828
828
822
816
823
818
823
817
820
822
818
818
818
816
820
817
820
828
822
838
850
851
844
841
839
822
810
818
823
818
820
825
828
822
818
819
826
819
828
825
820
830
827
822
826
822
836
833
828
830
826
834
831
836
841
837
844
838
830
834
830
836
833
829
828
818
816
818
810
820
817
813
820
818
818
818
816
815
817
815
820
816
810
816
810
821
825
821
820
811
816
818
818
820
811
820
822
818
818
810
818
812
815
812
820
810
807
816
819
812
809
804
820
818
810
816
810
812
813
822
812
810
819
822
802
813
817
823
818
810
818
798
823
811
828
821
811
811
816
818
815
801
800
807
818
807
811
810
836
825
852
838
850
834
850
831
791
803
820
828
818
810
811
826
804
815
804
828
810
818
818
812
815
844
820
806
816
831
802
852
833
807
836
859
822
806
866
852
815
820
838
842
826
794
810
823
808
804
804
818
839
794
819
820
809
804
845
802
802
826
826
804
860
800
806
806
831
802
804
824
796
814
807
854
806
795
804
833
812
813
806
834
818
798
836
825
796
852
822
827
806
818
828
801
820
823
831
795
850
786
804
833
812
876
842
787
838
805
847
804
796
816
786
810
810
788
809
812
836
774
830
827
843
855
815
815
836
798
818
790
819
836
815
805
823
807
818
827
786
823
833
828
812
826
848
798
802
812
825
828
812
798
834
838
807
836
833
868
836
823
838
834
834
828
813
864
820
798
806
827
799
812
825
828
774
818
795
834
827
823
860
822
798
786
786
806
844
753
789
823
826
786
810
795
820
792
828
820
790
779
818
816
804
809
790
804
810
794
798
787
801
800
804
802
786
790
798
804
808
800
812
806
810
802
798
804
795
804
812
790
794
794
790
800
797
796
804
791
791
802
795
833
828
836
822
807
798
790
788
783
804
804
798
799
795
795
805
813
813
806
803
810
810
803
804
809
804
828
806
810
818
820
817
836
828
826
818
819
818
836
819
828
836
818
807
806
804
809
804
820
806
798
806
803
804
809
812
806
803
798
802
795
805
811
812
806
802
803
802
800
811
813
812
806
798
806
799
804
808
814
812
802
807
798
807
812
801
805
812
802
806
798
806
812
809
820
805
810
807
810
799
820
815
804
820
807
806
803
812
811
807
806
795
798
810
810
812
809
804
822
823
831
842
838
828
825
830
800
798
806
806
802
812
813
814
807
811
811
806
812
825
813
822
816
816
810
807
820
809
828
822
818
822
830
818
828
825
836
836
830
831
822
818
828
825
820
813
811
810
810
806
807
809
804
812
802
807
806
806
812
809
812
812
810
799
810
813
809
804
820
806
803
802
810
812
809
812
812
806
806
806
795
812
809
812
815
806
803
807
802
807
811
812
810
795
802
810
807
811
812
812
810
806
816
806
820
809
821
812
818
810
811
803
807
809
812
820
795
803
803
821
832
844
852
842
826
835
826
804
809
820
811
810
816
810
812
809
828
820
816
816
816
818
814
811
814
830
816
822
816
822
820
827
829
830
830
830
823
838
841
836
828
830
822
822
818
820
815
812
802
810
818
803
806
809
815
813
806
799
810
810
812
811
812
812
818
806
806
802
812
813
814
812
810
803
818
807
812
813
807
814
818
802
810
798
815
809
812
820
810
810
810
807
813
809
812
820
802
810
798
818
812
809
813
814
818
802
818
810
820
809
820
822
810
806
810
798
812
813
804
812
802
810
807
806
820
833
844
852
823
835
802
800
793
820
812
816
810
818
810
813
812
820
806
816
818
811
820
813
823
821
816
818
819
816
815
825
828
836
830
823
830
822
828
825
836
831
811
818
819
813
811
812
812
810
802
802
798
806
809
820
804
816
806
816
802
812
809
813
820
816
794
818
803
820
809
812
812
806
807
806
810
813
809
812
814
806
802
810
803
812
817
812
812
806
806
806
799
812
803
812
810
802
806
803
815
815
807
820
816
806
818
811
812
815
812
798
802
802
802
812
803
812
812
810
816
826
834
837
832
820
828
798
794
799
802
807
812
815
806
802
816
803
815
813
815
814
802
810
810
811
820
820
820
818
818
819
818
828
819
836
836
826
830
826
826
830
827
821
822
811
816
806
806
812
809
805
812
802
806
802
802
805
799
804
812
802
802
807
806
812
801
805
806
802
806
810
795
809
807
812
803
803
806
802
812
809
806
812
806
798
806
800
809
804
812
807
798
803
803
805
809
812
804
806
798
807
802
814
801
812
807
794
802
798
799
804
803
804
812
794
798
802
794
804
811
821
838
830
826
818
818
820
793
800
804
802
798
794
803
804
809
804
807
802
803
810
795
804
809
812
812
811
806
806
815
815
813
814
818
818
818
819
821
825
820
828
816
810
807
812
809
807
812
802
799
803
795
804
799
812
812
794
798
798
798
804
808
804
814
795
802
798
798
812
801
812
798
799
798
794
804
801
800
804
794
799
795
798
796
797
804
804
803
794
802
794
804
793
796
800
795
787
798
794
796
801
805
800
794
794
803
794
807
801
804
804
802
803
802
798
805
803
804
800
798
802
798
794
804
795
796
804
803
806
826
830
829
828
828
794
786
794
798
805
799
804
806
798
794
806
798
812
809
804
806
802
802
806
795
814
799
806
820
816
810
810
818
824
814
828
822
818
818
818
812
817
812
814
807
791
794
799
804
799
805
804
798
794
803
799
804
793
796
800
806
786
802
804
797
796
800
790
787
794
786
804
799
796
804
790
787
794
794
796
793
796
790
794
790
790
786
796
793
800
804
787
790
790
787
789
797
791
800
798
786
786
790
791
793
796
800
787
790
794
796
793
804
796
791
795
795
787
796
783
800
788
791
791
787
786
796
793
800
804
818
834
830
811
815
808
788
798
794
798
795
804
793
804
804
795
802
790
794
804
801
804
810
794
794
798
812
797
812
814
810
818
818
806
820
821
814
819
810
816
802
800
801
807
812
794
794
802
794
804
793
804
804
799
798
794
799
800
799
804
804
799
791
798
798
791
797
796
804
802
786
802
790
796
797
804
800
794
787
795
786
800
795
800
804
799
790
798
794
806
801
800
802
790
798
794
796
797
804
812
798
795
810
798
804
801
805
804
806
798
803
794
807
793
796
800
794
791
798
794
804
809
836
836
830
818
822
806
788
792
800
804
802
798
798
805
799
812
804
803
798
798
803
812
809
812
806
810
802
802
820
813
820
828
822
818
823
822
820
825
820
828
818
818
802
806
809
804
804
806
798
802
799
800
797
804
804
806
802
798
802
796
809
804
804
803
798
806
803
804
801
804
812
803
798
798
791
812
801
804
807
799
798
806
798
804
801
807
807
806
798
806
802
804
808
807
804
816
799
806
799
806
801
804
804
803
791
798
802
804
795
805
806
811
819
834
828
817
828
806
787
799
802
798
812
803
805
806
807
802
802
812
809
812
806
810
799
810
802
814
813
829
820
810
818
822
819
828
825
829
828
830
818
818
816
820
811
807
812
806
810
803
794
812
801
804
804
811
798
802
798
804
809
812
806
798
799
810
794
806
797
812
812
799
802
810
799
804
808
812
812
810
795
803
805
808
812
806
806
798
803
798
812
801
812
812
807
810
807
812
809
804
814
798
794
798
802
804
795
804
812
798
795
810
810
836
840
852
836
827
818
794
799
805
809
812
812
802
807
807
810
814
813
812
812
806
807
810
810
812
813
821
815
819
810
818
818
820
833
823
836
826
827
830
818
828
825
821
823
818
806
818
810
820
809
806
812
806
802
806
798
812
809
807
804
818
810
810
802
812
801
812
814
816
798
802
812
801
807
812
810
799
816
799
813
808
815
812
816
803
810
812
815
804
806
818
794
810
806
820
809
813
820
810
810
806
810
812
809
805
806
810
806
810
802
807
809
820
822
830
831
850
834
828
825
820
804
806
798
818
803
809
820
814
816
818
818
810
812
813
820
820
822
816
816
820
819
822
828
826
826
830
830
836
833
836
836
839
826
826
823
815
821
828
810
807
816
807
814
813
805
820
806
811
818
802
812
824
807
812
810
806
816
803
820
813
806
820
819
810
802
806
805
811
820
812
807
810
806
802
820
813
815
810
810
810
811
812
813
815
812
818
810
818
806
820
797
812
814
806
810
818
802
813
813
813
828
838
834
827
830
828
825
804
814
816
810
810
803
812
809
823
820
818
816
818
818
813
824
820
821
822
810
823
818
828
833
828
830
827
826
822
834
832
831
830
831
818
822
819
820
813
822
828
798
810
818
811
812
811
820
814
806
818
802
816
805
809
812
820
822
816
802
816
821
809
813
820
810
816
807
810
828
817
828
812
818
802
818
810
804
813
813
820
816
802
810
818
815
815
828
813
807
823
818
816
820
815
821
836
816
811
806
806
820
793
836
820
794
823
819
844
847
836
836
818
834
806
799
815
813
823
812
822
823
807
810
815
833
820
820
823
816
823
823
820
824
820
822
830
816
830
822
828
835
836
836
826
819
826
827
823
825
820
836
823
818
826
816
814
819
812
828
818
811
810
810
820
813
828
820
810
811
823
798
820
813
815
820
822
816
816
799
815
815
823
815
816
816
819
816
813
819
820
820
806
807
822
810
820
817
821
813
816
806
816
807
820
815
814
814
810
816
810
811
828
815
823
818
806
816
810
820
815
813
820
816
818
818
822
804
813
820
828
818
818
818
816
820
815
812
820
819
811
818
810
815
812
828
818
811
811
818
812
819
820
820
818
806
816
813
813
820
820
818
816
822
816
812
819
820
812
818
810
818
807
814
815
820
820
810
810
822
826
845
840
836
836
826
806
799
814
809
820
830
818
810
818
807
820
824
812
820
826
819
819
818
828
827
828
820
830
826
822
818
828
825
830
839
830
827
838
827
828
833
836
830
830
826
819
819
821
817
828
820
818
811
818
818
820
813
820
820
816
816
818
818
820
817
812
820
818
810
823
806
821
815
815
820
810
811
818
818
820
813
823
820
818
816
816
815
815
814
828
806
810
816
818
812
813
820
812
818
810
816
818
820
813
813
820
810
810
810
818
812
811
813
812
816
810
810
807
812
809
820
814
810
811
810
811
812
813
820
822
818
810
818
810
813
809
820
820
818
818
818
818
823
813
813
822
818
806
806
807
821
817
807
820
818
811
807
816
820
827
837
846
834
830
834
802
806
815
812
814
806
818
818
806
820
811
820
820
810
816
818
810
821
824
828
828
822
816
822
818
828
825
830
820
830
826
827
822
836
833
836
818
818
819
823
814
813
820
820
807
816
810
806
812
813
820
821
806
810
810
810
815
815
820
820
810
811
818
803
814
813
812
820
802
811
810
816
812
809
814
814
816
803
818
807
812
817
820
812
816
810
810
810
820
813
812
810
811
806
802
812
815
812
812
818
803
810
806
820
809
813
820
810
810
810
802
815
811
813
814
810
810
822
807
812
813
814
807
818
803
810
806
820
813
814
820
818
816
818
815
815
813
813
810
806
806
803
813
811
813
812
818
816
838
830
847
833
836
837
818
798
798
811
815
813
812
814
818
810
818
806
820
813
815
814
818
807
818
818
813
819
821
828
827
819
826
826
829
835
828
837
834
830
826
831
828
825
828
820
818
816
816
810
812
815
812
820
803
810
810
812
809
813
812
818
806
811
810
813
809
812
815
806
806
810
803
815
809
812
820
810
810
816
810
820
809
807
814
810
810
818
810
820
811
813
820
810
806
807
812
813
813
820
810
806
806
803
813
809
812
820
807
811
810
806
812
813
812
814
811
802
807
810
815
803
812
815
816
810
810
802
812
811
820
813
810
810
818
816
813
820
813
816
807
816
806
812
809
812
812
803
816
818
826
844
841
844
831
834
818
798
794
820
809
813
820
810
810
806
820
809
813
814
818
816
810
810
814
817
828
814
818
822
823
823
821
825
829
836
830
826
826
826
831
828
823
822
810
810
818
821
813
805
823
810
811
806
803
806
809
812
822
816
806
806
807
814
811
812
814
810
802
818
816
812
815
814
820
810
802
807
818
813
809
820
810
810
822
806
820
813
813
820
810
803
816
806
809
812
813
814
806
810
816
820
809
804
820
810
810
810
815
811
813
814
816
807
802
803
813
809
812
820
810
818
806
810
812
813
815
823
822
810
810
818
812
813
820
810
810
818
811
807
813
812
815
818
834
842
850
836
832
836
814
798
802
810
810
812
813
815
828
810
806
818
816
812
815
820
822
816
818
818
806
828
825
828
828
822
819
830
827
844
833
828
844
838
826
838
827
836
825
828
819
811
818
810
820
809
812
820
810
818
818
810
813
820
815
816
811
810
803
820
815
812
820
810
806
811
820
817
812
820
818
806
810
807
821
811
820
815
818
816
810
816
812
813
812
820
816
810
811
816
813
817
812
814
810
807
818
810
821
821
820
818
803
818
818
812
811
812
820
818
810
818
820
825
821
828
822
819
818
818
820
817
805
815
816
807
810
820
809
815
820
823
834
850
842
836
827
820
802
798
806
810
822
813
814
812
818
818
818
803
815
820
812
818
819
818
818
828
813
822
828
827
818
826
828
825
844
838
834
834
830
822
829
825
821
820
822
818
816
810
820
811
820
820
807
822
806
798
812
815
815
814
806
811
799
806
813
801
815
812
816
810
810
802
812
812
812
807
802
806
806
812
811
804
814
806
802
807
805
809
812
812
806
799
818
803
806
815
812
812
816
810
806
812
809
820
820
806
818
810
795
820
811
812
804
798
799
806
806
812
811
815
804
818
810
838
834
831
819
815
812
798
794
798
803
812
811
812
814
816
802
818
802
815
809
812
821
816
818
818
806
821
825
822
822
818
818
818
826
822
825
828
836
826
823
827
822
828
824
812
820
818
807
806
806
804
809
812
806
810
802
818
802
805
803
812
820
806
802
806
802
813
809
812
813
802
810
806
819
804
809
812
812
816
798
818
810
814
815
804
812
818
810
816
790
813
809
805
814
806
802
816
803
807
824
812
820
810
803
816
803
806
817
796
807
818
802
810
791
813
808
812
836
838
822
830
816
804
825
800
813
806
810
819
816
828
811
821
814
802
816
811
806
812
817
813
820
818
810
822
806
820
813
821
828
834
810
830
818
836
815
820
836
822
822
799
816
836
815
800
820
790
811
806
791
814
809
820
807
803
802
822
803
805
797
812
807
816
806
810
787
809
820
814
810
799
822
818
807
813
828
815
818
795
803
815
797
823
806
816
803
802
798
828
827
804
828
806
826
790
837
801
804
828
802
802
798
811
788
809
812
806
810
803
790
788
801
804
812
803
816
826
826
819
821
812
791
787
795
799
812
793
805
807
798
795
806
795
814
783
815
812
798
802
794
807
815
813
804
820
810
807
810
810
820
809
830
820
826
810
826
818
800
809
812
813
806
794
786
788
793
790
764
762
754
755
762
768
761
764
772
754
752
752
752
756
755
756
759
758
755
762
759
759
749
768
768
758
746
758
754
759
767
748
768
766
754
758
758
764
761
772
768
762
755
758
755
756
753
756
758
759
752
762
762
757
756
772
759
754
758
762
764
753
756
764
762
754
766
763
761
764
756
762
754
759
759
764
761
759
772
774
754
759
756
765
758
772
766
763
759
758
764
769
759
758
763
762
755
768
779
768
768
766
755
762
754
764
769
759
764
762
747
759
754
764
761
764
772
784
774
784
770
772
776
768
759
754
762
762
768
761
772
772
766
759
767
762
764
765
768
772
770
771
770
771
772
777
780
788
774
770
774
771
788
779
783
790
770
774
767
780
776
772
768
766
758
766
762
764
761
772
772
767
754
763
759
759
761
756
768
770
762
762
767
768
765
764
764
762
763
762
759
758
765
772
772
766
754
770
762
768
763
764
768
766
755
770
755
764
765
756
768
766
754
766
763
759
767
764
772
762
755
763
763
772
761
764
764
755
762
758
763
764
767
768
772
759
766
763
768
761
772
764
762
763
766
762
759
761
764
772
763
759
766
772
761
772
774
767
759
766
763
768
761
764
764
759
758
763
764
765
768
772
774
778
786
790
788
777
782
772
758
754
767
755
772
765
772
772
762
771
758
762
768
761
772
780
771
762
766
767
780
777
768
782
778
770
786
778
780
781
788
788
786
784
779
771
771
775
772
766
762
766
762
768
769
768
772
770
767
762
762
768
765
764
772
766
762
763
762
772
763
772
772
762
762
762
758
768
765
772
774
762
758
763
754
772
777
768
772
759
762
763
766
764
767
768
772
758
763
766
762
774
765
768
772
766
763
766
763
776
768
772
766
774
774
766
768
761
772
768
766
770
766
759
769
772
772
774
759
770
759
764
765
768
768
767
762
766
762
774
761
772
780
766
767
774
766
768
765
764
772
759
755
767
763
765
768
775
786
786
794
798
796
793
800
764
774
754
770
763
772
765
772
772
771
767
766
766
772
769
780
772
770
770
778
770
780
769
780
782
787
775
786
786
789
793
788
800
798
786
786
778
780
781
780
788
774
767
778
767
780
765
772
772
766
762
774
763
772
763
772
780
770
766
770
762
772
765
772
780
766
766
762
767
772
776
772
772
770
762
774
770
768
767
768
780
766
770
770
767
769
772
774
770
766
774
762
772
769
772
772
771
770
770
766
772
769
773
774
770
770
766
770
768
771
772
774
770
766
762
762
772
769
774
775
771
758
774
763
772
777
772
782
770
770
770
774
780
773
773
788
774
766
770
763
772
765
775
772
774
767
766
770
780
797
804
814
794
787
798
771
758
777
773
780
770
763
774
771
780
777
780
774
774
763
775
770
780
777
780
788
779
784
778
783
783
788
788
794
784
790
791
800
793
796
800
790
786
786
778
780
777
774
780
774
766
778
770
772
773
772
780
774
774
774
763
772
777
773
780
778
779
770
766
780
777
780
774
775
778
778
766
775
769
780
775
779
763
774
771
774
776
773
774
774
762
774
766
780
769
774
780
774
770
775
774
772
777
773
788
774
766
774
766
775
777
772
780
770
771
778
774
780
779
774
780
767
775
774
767
773
776
775
780
775
778
774
788
777
783
780
778
778
774
767
774
777
774
770
766
786
771
782
793
805
814
818
795
802
787
772
769
773
788
775
774
774
770
782
783
773
775
784
774
778
770
780
781
788
782
779
786
790
771
789
793
789
791
798
790
791
794
804
797
800
800
794
790
790
786
788
783
780
788
786
771
775
778
780
781
781
782
778
774
778
774
788
777
780
788
774
774
771
778
780
777
772
782
778
778
784
778
780
781
780
780
774
775
778
780
777
780
781
779
774
775
774
780
781
781
780
774
778
778
774
780
779
773
788
774
774
778
774
780
781
780
775
774
770
775
780
777
780
780
778
778
778
778
780
781
780
788
786
784
784
778
783
777
781
782
778
778
774
774
780
771
780
788
786
786
798
806
820
801
804
804
775
767
775
774
788
777
788
780
782
778
778
779
788
777
783
788
784
786
786
786
789
793
788
790
786
791
798
794
791
799
804
806
802
794
802
794
801
796
791
790
787
790
778
788
781
788
788
786
786
774
784
788
781
788
788
786
774
786
786
783
793
783
788
778
779
784
784
775
781
783
788
784
784
778
775
789
777
781
790
782
778
786
784
788
781
788
790
778
786
778
784
788
785
780
796
778
787
786
784
788
793
788
791
784
774
778
778
783
793
788
794
784
784
786
804
793
788
791
791
786
786
778
796
781
788
788
786
784
786
786
789
809
828
830
810
787
802
784
777
775
790
786
790
786
786
791
793
796
800
786
791
786
786
791
799
804
804
791
795
794
798
800
793
815
812
798
806
807
806
820
813
812
820
806
798
802
794
800
783
788
796
790
786
790
787
788
793
788
796
786
786
794
784
788
787
796
794
787
787
779
796
793
788
796
794
787
784
790
791
793
791
800
790
786
790
786
800
793
800
796
786
778
794
778
796
797
788
788
786
784
778
786
788
793
800
788
787
794
784
790
804
795
800
800
798
794
786
786
800
793
791
791
786
787
795
789
811
828
820
810
794
798
784
773
777
790
800
791
790
798
804
793
788
800
790
794
794
791
796
785
804
804
798
798
795
795
807
801
805
812
810
807
807
806
813
809
812
822
803
795
806
795
812
793
804
788
794
794
786
786
804
789
800
786
786
786
779
800
785
796
807
786
798
790
786
808
788
796
795
794
794
786
791
793
806
796
794
802
787
787
791
792
800
796
790
794
794
795
788
797
796
788
791
790
798
799
791
793
804
804
790
790
790
794
800
803
788
806
802
799
803
794
791
793
789
804
791
798
794
794
804
801
828
828
822
806
810
798
783
797
804
791
816
794
798
784
814
800
806
802
806
803
795
804
803
804
800
818
795
816
806
819
812
820
802
802
816
818
806
833
815
806
818
810
818
803
804
793
805
804
790
806
786
784
800
793
796
804
795
794
810
795
806
781
800
804
795
802
798
798
800
803
823
804
794
798
795
831
793
800
820
798
806
794
799
796
809
812
804
790
802
794
787
806
809
796
800
806
786
806
819
781
797
807
812
810
786
790
802
800
795
804
806
802
790
799
778
839
799
805
804
827
799
806
810
815
793
820
800
802
784
810
802
828
813
844
819
818
811
802
812
811
796
812
816
798
791
802
836
793
812
812
794
802
798
806
812
811
804
820
818
816
819
806